,Sensor_id,EMG,qw,qx,qy,qz
2022-02-26 14:00:08.790706,5,0.0,,,,
2022-02-26 14:00:08.791206,5,0.0,,,,
2022-02-26 14:00:08.791706,5,0.0,,,,
2022-02-26 14:00:08.792206,5,0.0,,,,
2022-02-26 14:00:08.792706,5,0.0,,,,
2022-02-26 14:00:08.793206,5,0.0,,,,
2022-02-26 14:00:08.793706,5,0.0,,,,
2022-02-26 14:00:08.794206,5,0.0,,,,
2022-02-26 14:00:08.794706,5,0.0,,,,
2022-02-26 14:00:08.795206,5,0.0,,,,
2022-02-26 14:00:08.795706,5,0.0,,,,
2022-02-26 14:00:08.796206,5,0.0,,,,
2022-02-26 14:00:08.796706,5,0.0,,,,
2022-02-26 14:00:08.797206,5,0.0,,,,
2022-02-26 14:00:08.797706,5,0.0,,,,
2022-02-26 14:00:08.798206,5,0.0,,,,
2022-02-26 14:00:08.798706,5,0.0,,,,
2022-02-26 14:00:08.799206,5,0.0,,,,
2022-02-26 14:00:08.799706,5,0.0,,,,
2022-02-26 14:00:08.800206,5,0.0,,,,
2022-02-26 14:00:08.800706,5,0.0,,,,
2022-02-26 14:00:08.801206,5,0.0,,,,
2022-02-26 14:00:08.801706,5,0.0,,,,
2022-02-26 14:00:08.802206,5,0.0,,,,
2022-02-26 14:00:08.802706,5,0.0,,,,
2022-02-26 14:00:08.803206,5,0.0,,,,
2022-02-26 14:00:08.803706,5,0.0,,,,
2022-02-26 14:00:08.804206,5,0.0,,,,
2022-02-26 14:00:08.804706,5,0.0,,,,
2022-02-26 14:00:08.805206,5,0.0,,,,
2022-02-26 14:00:08.805706,5,0.0,,,,
2022-02-26 14:00:08.806206,5,0.0,,,,
2022-02-26 14:00:08.806706,5,0.0,,,,
2022-02-26 14:00:08.807206,5,0.0,,,,
2022-02-26 14:00:08.807706,5,0.0,,,,
2022-02-26 14:00:08.808206,5,0.0,,,,
2022-02-26 14:00:08.808706,5,0.0,,,,
2022-02-26 14:00:08.809206,5,0.0,,,,
2022-02-26 14:00:08.809706,5,0.0,,,,
2022-02-26 14:00:08.810206,5,0.0,,,,
2022-02-26 14:00:08.810706,5,0.0,,,,
2022-02-26 14:00:08.811206,5,0.0,,,,
2022-02-26 14:00:08.811706,5,0.0,,,,
2022-02-26 14:00:08.812206,5,0.0,,,,
2022-02-26 14:00:08.812706,5,0.0,,,,
2022-02-26 14:00:08.813206,5,0.0,,,,
2022-02-26 14:00:08.813706,5,0.0,,,,
2022-02-26 14:00:08.814206,5,0.0,,,,
2022-02-26 14:00:08.814706,5,0.0,,,,
2022-02-26 14:00:08.815206,5,0.0,,,,
2022-02-26 14:00:08.815706,5,0.0,,,,
2022-02-26 14:00:08.816206,5,0.0,,,,
2022-02-26 14:00:08.816706,5,0.0,,,,
2022-02-26 14:00:08.817206,5,0.0,,,,
2022-02-26 14:00:08.817706,5,0.0,,,,
2022-02-26 14:00:08.818206,5,0.0,,,,
2022-02-26 14:00:08.818706,5,0.0,,,,
2022-02-26 14:00:08.819206,5,0.0,,,,
2022-02-26 14:00:08.819706,5,0.0,,,,
2022-02-26 14:00:08.820206,5,0.0,,,,
2022-02-26 14:00:08.820706,5,0.0,,,,
2022-02-26 14:00:08.821206,5,0.0,,,,
2022-02-26 14:00:08.821706,5,0.0,,,,
2022-02-26 14:00:08.822206,5,0.0,,,,
2022-02-26 14:00:08.822706,5,0.0,,,,
2022-02-26 14:00:08.823206,5,0.0,,,,
2022-02-26 14:00:08.823706,5,0.0,,,,
2022-02-26 14:00:08.824206,5,0.0,,,,
2022-02-26 14:00:08.824706,5,0.0,,,,
2022-02-26 14:00:08.825206,5,0.0,,,,
2022-02-26 14:00:08.825706,5,0.0,,,,
2022-02-26 14:00:08.826206,5,0.0,,,,
2022-02-26 14:00:08.826706,5,0.0,,,,
2022-02-26 14:00:08.827206,5,0.0,,,,
2022-02-26 14:00:08.827706,5,0.0,,,,
2022-02-26 14:00:08.828206,5,0.0,,,,
2022-02-26 14:00:08.828706,5,0.0,,,,
2022-02-26 14:00:08.829206,5,0.0,,,,
2022-02-26 14:00:08.829706,5,0.0,,,,
2022-02-26 14:00:08.830206,5,0.0,,,,
2022-02-26 14:00:08.830706,5,0.0,,,,
2022-02-26 14:00:08.831206,5,0.0,,,,
2022-02-26 14:00:08.831706,5,0.0,,,,
2022-02-26 14:00:08.832206,5,0.0,,,,
2022-02-26 14:00:08.832706,5,0.0,,,,
2022-02-26 14:00:08.833206,5,0.0,,,,
2022-02-26 14:00:08.833706,5,0.0,,,,
2022-02-26 14:00:08.834206,5,0.0,,,,
2022-02-26 14:00:08.834706,5,0.0,,,,
2022-02-26 14:00:08.835206,5,0.0,,,,
2022-02-26 14:00:08.835706,5,0.0,,,,
2022-02-26 14:00:08.836206,5,0.0,,,,
2022-02-26 14:00:08.836706,5,0.0,,,,
2022-02-26 14:00:08.837206,5,0.0,,,,
2022-02-26 14:00:08.837706,5,0.0,,,,
2022-02-26 14:00:08.838206,5,0.0,,,,
2022-02-26 14:00:08.838706,5,0.0,,,,
2022-02-26 14:00:08.839206,5,0.0,,,,
2022-02-26 14:00:08.839706,5,0.0,,,,
2022-02-26 14:00:08.840206,5,0.0,,,,
2022-02-26 14:00:08.840706,5,0.0,,,,
2022-02-26 14:00:08.841206,5,0.0,,,,
2022-02-26 14:00:08.841706,5,0.0,,,,
2022-02-26 14:00:08.842206,5,0.0,,,,
2022-02-26 14:00:08.842706,5,0.0,,,,
2022-02-26 14:00:08.843206,5,0.0,,,,
2022-02-26 14:00:08.843706,5,0.0,,,,
2022-02-26 14:00:08.844206,5,8.664725e-06,,,,
2022-02-26 14:00:08.844706,5,5.046109e-05,,,,
2022-02-26 14:00:08.845206,5,0.00012227609,,,,
2022-02-26 14:00:08.845706,5,0.00016348288,,,,
2022-02-26 14:00:08.846206,5,0.00014908239,,,,
2022-02-26 14:00:08.846706,5,0.0001368367,,,,
2022-02-26 14:00:08.847206,5,0.00015008831,,,,
2022-02-26 14:00:08.847706,5,0.00014619392,,,,
2022-02-26 14:00:08.848206,5,0.00011931465,,,,
2022-02-26 14:00:08.848706,5,0.0001039924,,,,
2022-02-26 14:00:08.849206,5,0.000105992665,,,,
2022-02-26 14:00:08.849706,5,0.00010970556,,,,
2022-02-26 14:00:08.850206,5,0.00011198481,,,,
2022-02-26 14:00:08.850706,5,0.00011297267,,,,
2022-02-26 14:00:08.851206,5,0.0001023451,,,,
2022-02-26 14:00:08.851706,5,6.744618e-05,,,,
2022-02-26 14:00:08.852206,5,9.068055e-06,,,,
2022-02-26 14:00:08.852706,5,-4.887618e-05,,,,
2022-02-26 14:00:08.853206,5,-7.293925e-05,,,,
2022-02-26 14:00:08.853706,5,-4.6419307e-05,,,,
2022-02-26 14:00:08.854206,5,1.2940752e-05,,,,
2022-02-26 14:00:08.854706,5,6.0857306e-05,,,,
2022-02-26 14:00:08.855206,5,7.863661e-05,,,,
2022-02-26 14:00:08.855706,5,9.169844e-05,,,,
2022-02-26 14:00:08.856206,5,0.00011251528,,,,
2022-02-26 14:00:08.856706,5,0.0001273321,,,,
2022-02-26 14:00:08.857206,5,0.00014107183,,,,
2022-02-26 14:00:08.857706,5,0.00016965938,,,,
2022-02-26 14:00:08.858206,5,0.00020384051,,,,
2022-02-26 14:00:08.858706,5,0.00022131509,,,,
2022-02-26 14:00:08.859206,5,0.00021069018,,,,
2022-02-26 14:00:08.859706,5,0.00017449056,,,,
2022-02-26 14:00:08.860206,5,0.00012614085,,,,
2022-02-26 14:00:08.860706,5,7.999554e-05,,,,
2022-02-26 14:00:08.861206,5,4.4125223e-05,,,,
2022-02-26 14:00:08.861706,5,1.8476128e-05,,,,
2022-02-26 14:00:08.862206,5,2.5325496e-06,,,,
2022-02-26 14:00:08.862706,5,9.932693e-06,,,,
2022-02-26 14:00:08.863206,5,4.708531e-05,,,,
2022-02-26 14:00:08.863706,5,8.812931e-05,,,,
2022-02-26 14:00:08.864206,5,0.00010476496,,,,
2022-02-26 14:00:08.864706,5,9.546796e-05,,,,
2022-02-26 14:00:08.865206,5,8.2539445e-05,,,,
2022-02-26 14:00:08.865706,5,9.2846596e-05,,,,
2022-02-26 14:00:08.866206,5,0.00012198475,,,,
2022-02-26 14:00:08.866706,5,0.00013752142,,,,
2022-02-26 14:00:08.867206,5,0.00012215007,,,,
2022-02-26 14:00:08.867706,5,8.957015e-05,,,,
2022-02-26 14:00:08.868206,5,6.788187e-05,,,,
2022-02-26 14:00:08.868706,5,6.271326e-05,,,,
2022-02-26 14:00:08.869206,5,4.8709007e-05,,,,
2022-02-26 14:00:08.869706,5,1.7447344e-05,,,,
2022-02-26 14:00:08.870206,5,-6.8764125e-06,,,,
2022-02-26 14:00:08.870706,5,-4.5543193e-06,,,,
2022-02-26 14:00:08.871206,5,2.1955111e-05,,,,
2022-02-26 14:00:08.871706,5,5.6434044e-05,,,,
2022-02-26 14:00:08.872206,5,8.107601e-05,,,,
2022-02-26 14:00:08.872706,5,8.466279e-05,,,,
2022-02-26 14:00:08.873206,5,6.466132e-05,,,,
2022-02-26 14:00:08.873706,5,2.7343449e-05,,,,
2022-02-26 14:00:08.874206,5,-1.291794e-05,,,,
2022-02-26 14:00:08.874706,5,-3.559294e-05,,,,
2022-02-26 14:00:08.875206,5,-2.4714129e-05,,,,
2022-02-26 14:00:08.875706,5,1.5737725e-05,,,,
2022-02-26 14:00:08.876206,5,6.297473e-05,,,,
2022-02-26 14:00:08.876706,5,9.606812e-05,,,,
2022-02-26 14:00:08.877206,5,0.000109509245,,,,
2022-02-26 14:00:08.877706,5,0.00011298964,,,,
2022-02-26 14:00:08.878206,5,0.00012305014,,,,
2022-02-26 14:00:08.878706,5,0.00013932186,,,,
2022-02-26 14:00:08.879206,5,0.00014262526,,,,
2022-02-26 14:00:08.879706,5,0.0001258572,,,,
2022-02-26 14:00:08.880206,5,9.70433e-05,,,,
2022-02-26 14:00:08.880706,5,5.7728033e-05,,,,
2022-02-26 14:00:08.881206,5,7.534043e-06,,,,
2022-02-26 14:00:08.881706,5,-4.1203803e-05,,,,
2022-02-26 14:00:08.882206,5,-6.466621e-05,,,,
2022-02-26 14:00:08.882706,5,-4.069298e-05,,,,
2022-02-26 14:00:08.883206,5,1.9154611e-05,,,,
2022-02-26 14:00:08.883706,5,6.757888e-05,,,,
2022-02-26 14:00:08.884206,5,7.632776e-05,,,,
2022-02-26 14:00:08.884706,5,5.658889e-05,,,,
2022-02-26 14:00:08.885206,5,2.7362488e-05,,,,
2022-02-26 14:00:08.885706,5,2.4650412e-06,,,,
2022-02-26 14:00:08.886206,5,-4.3494297e-06,,,,
2022-02-26 14:00:08.886706,5,1.1156231e-05,,,,
2022-02-26 14:00:08.887206,5,3.7335594e-05,,,,
2022-02-26 14:00:08.887706,5,5.988959e-05,,,,
2022-02-26 14:00:08.888206,5,7.0675684e-05,,,,
2022-02-26 14:00:08.888706,5,6.883323e-05,,,,
2022-02-26 14:00:08.889206,5,6.181105e-05,,,,
2022-02-26 14:00:08.889706,5,5.8608883e-05,,,,
2022-02-26 14:00:08.890206,5,6.292064e-05,,,,
2022-02-26 14:00:08.890706,5,7.3958276e-05,,,,
2022-02-26 14:00:08.891206,5,8.619475e-05,,,,
2022-02-26 14:00:08.891706,5,9.081308e-05,,,,
2022-02-26 14:00:08.892206,5,8.8838875e-05,,,,
2022-02-26 14:00:08.892706,5,9.024456e-05,,,,
2022-02-26 14:00:08.893206,5,9.20815e-05,,,,
2022-02-26 14:00:08.893706,5,8.866636e-05,,,,
2022-02-26 14:00:08.894206,5,9.935181e-05,,,,
2022-02-26 14:00:08.894706,5,0.00014109346,,,,
2022-02-26 14:00:08.895206,5,0.0001953003,,,,
2022-02-26 14:00:08.895706,5,0.00023692462,,,,
2022-02-26 14:00:08.896206,5,0.00025845075,,,,
2022-02-26 14:00:08.896706,5,0.00025586263,,,,
2022-02-26 14:00:08.897206,5,0.00022430957,,,,
2022-02-26 14:00:08.897706,5,0.00016525635,,,,
2022-02-26 14:00:08.898206,5,8.967725e-05,,,,
2022-02-26 14:00:08.898706,5,1.5012283e-05,,,,
2022-02-26 14:00:08.899206,5,-3.7258113e-05,,,,
2022-02-26 14:00:08.899706,5,-4.156724e-05,,,,
2022-02-26 14:00:08.900206,5,2.457169e-06,,,,
2022-02-26 14:00:08.900706,5,5.353824e-05,,,,
2022-02-26 14:00:08.901206,5,7.555368e-05,,,,
2022-02-26 14:00:08.901706,5,6.7515124e-05,,,,
2022-02-26 14:00:08.902206,5,4.999949e-05,,,,
2022-02-26 14:00:08.902706,5,4.694306e-05,,,,
2022-02-26 14:00:08.903206,5,6.376753e-05,,,,
2022-02-26 14:00:08.903706,5,8.5574065e-05,,,,
2022-02-26 14:00:08.904206,5,9.744985e-05,,,,
2022-02-26 14:00:08.904706,5,0.00010310214,,,,
2022-02-26 14:00:08.905206,5,0.000119239645,,,,
2022-02-26 14:00:08.905706,5,0.00013936641,,,,
2022-02-26 14:00:08.906206,5,0.00013035822,,,,
2022-02-26 14:00:08.906706,5,7.515266e-05,,,,
2022-02-26 14:00:08.907206,5,-5.68232e-06,,,,
2022-02-26 14:00:08.907706,5,-6.974208e-05,,,,
2022-02-26 14:00:08.908206,5,-8.3280254e-05,,,,
2022-02-26 14:00:08.908706,5,-3.7353915e-05,,,,
2022-02-26 14:00:08.909206,5,4.4224198e-05,,,,
2022-02-26 14:00:08.909706,5,0.00010997476,,,,
2022-02-26 14:00:08.910206,5,0.00013341873,,,,
2022-02-26 14:00:08.910706,5,0.00013059183,,,,
2022-02-26 14:00:08.911206,5,0.00011288933,,,,
2022-02-26 14:00:08.911706,5,8.366335e-05,,,,
2022-02-26 14:00:08.912206,5,6.128901e-05,,,,
2022-02-26 14:00:08.912706,5,5.4913475e-05,,,,
2022-02-26 14:00:08.913206,5,4.854954e-05,,,,
2022-02-26 14:00:08.913706,5,3.195043e-05,,,,
2022-02-26 14:00:08.914206,5,1.3052433e-05,,,,
2022-02-26 14:00:08.914706,5,2.4936382e-06,,,,
2022-02-26 14:00:08.915206,5,7.6131196e-06,,,,
2022-02-26 14:00:08.915706,5,2.5561072e-05,,,,
2022-02-26 14:00:08.916206,5,4.174619e-05,,,,
2022-02-26 14:00:08.916706,5,4.4669177e-05,,,,
2022-02-26 14:00:08.917206,5,3.7415153e-05,,,,
2022-02-26 14:00:08.917706,5,3.4817636e-05,,,,
2022-02-26 14:00:08.918206,5,5.0852133e-05,,,,
2022-02-26 14:00:08.918706,5,8.930742e-05,,,,
2022-02-26 14:00:08.919206,5,0.00013706437,,,,
2022-02-26 14:00:08.919706,5,0.0001678748,,,,
2022-02-26 14:00:08.920206,5,0.00016776817,,,,
2022-02-26 14:00:08.920706,5,0.00014803409,,,,
2022-02-26 14:00:08.921206,5,0.0001299955,,,,
2022-02-26 14:00:08.921706,5,0.00012699317,,,,
2022-02-26 14:00:08.922206,5,0.00013895569,,,,
2022-02-26 14:00:08.922706,5,0.00015163474,,,,
2022-02-26 14:00:08.923206,5,0.00013998558,,,,
2022-02-26 14:00:08.923706,5,9.0139496e-05,,,,
2022-02-26 14:00:08.924206,5,2.0689598e-05,,,,
2022-02-26 14:00:08.924706,5,-2.1645981e-05,,,,
2022-02-26 14:00:08.925206,5,-2.0312216e-06,,,,
2022-02-26 14:00:08.925706,5,6.246941e-05,,,,
2022-02-26 14:00:08.926206,5,0.00012725145,,,,
2022-02-26 14:00:08.926706,5,0.00016580273,,,,
2022-02-26 14:00:08.927206,5,0.00017782529,,,,
2022-02-26 14:00:08.927706,5,0.00017619545,,,,
2022-02-26 14:00:08.928206,5,0.00016943511,,,,
2022-02-26 14:00:08.928706,5,0.00016018016,,,,
2022-02-26 14:00:08.929206,5,0.0001539207,,,,
2022-02-26 14:00:08.929706,5,0.00014634762,,,,
2022-02-26 14:00:08.930206,5,0.000111760244,,,,
2022-02-26 14:00:08.930706,5,4.1381336e-05,,,,
2022-02-26 14:00:08.931206,5,-2.574272e-05,,,,
2022-02-26 14:00:08.931706,5,-4.8730806e-05,,,,
2022-02-26 14:00:08.932206,5,-2.4771114e-05,,,,
2022-02-26 14:00:08.932706,5,1.8699526e-05,,,,
2022-02-26 14:00:08.933206,5,4.3248037e-05,,,,
2022-02-26 14:00:08.933706,5,3.6669888e-05,,,,
2022-02-26 14:00:08.934206,5,1.8536688e-05,,,,
2022-02-26 14:00:08.934706,5,1.4964926e-06,,,,
2022-02-26 14:00:08.935206,5,-1.5786552e-05,,,,
2022-02-26 14:00:08.935706,5,-3.0457177e-05,,,,
2022-02-26 14:00:08.936206,5,-3.48136e-05,,,,
2022-02-26 14:00:08.936706,5,-2.3728537e-05,,,,
2022-02-26 14:00:08.937206,5,-6.8603856e-07,,,,
2022-02-26 14:00:08.937706,5,2.2691343e-05,,,,
2022-02-26 14:00:08.938206,5,3.8276645e-05,,,,
2022-02-26 14:00:08.938706,5,4.7457714e-05,,,,
2022-02-26 14:00:08.939206,5,5.5708195e-05,,,,
2022-02-26 14:00:08.939706,5,6.9651505e-05,,,,
2022-02-26 14:00:08.940206,5,9.689986e-05,,,,
2022-02-26 14:00:08.940706,5,0.00013707213,,,,
2022-02-26 14:00:08.941206,5,0.00017561058,,,,
2022-02-26 14:00:08.941706,5,0.00019441609,,,,
2022-02-26 14:00:08.942206,5,0.00018857597,,,,
2022-02-26 14:00:08.942706,5,0.00017841227,,,,
2022-02-26 14:00:08.943206,5,0.00018351854,,,,
2022-02-26 14:00:08.943706,5,0.00018157638,,,,
2022-02-26 14:00:08.944206,5,0.00013915573,,,,
2022-02-26 14:00:08.944706,5,6.0588583e-05,,,,
2022-02-26 14:00:08.945206,5,-2.0516492e-05,,,,
2022-02-26 14:00:08.945706,5,-6.6153596e-05,,,,
2022-02-26 14:00:08.946206,5,-6.4776934e-05,,,,
2022-02-26 14:00:08.946706,5,-4.221876e-05,,,,
2022-02-26 14:00:08.947206,5,-2.9528377e-05,,,,
2022-02-26 14:00:08.947706,5,-3.794464e-05,,,,
2022-02-26 14:00:08.948206,5,-5.7161647e-05,,,,
2022-02-26 14:00:08.948706,5,-6.314359e-05,,,,
2022-02-26 14:00:08.949206,5,-3.3583852e-05,,,,
2022-02-26 14:00:08.949706,5,1.8732322e-05,,,,
2022-02-26 14:00:08.950206,5,4.2902386e-05,,,,
2022-02-26 14:00:08.950706,5,2.0342499e-05,,,,
2022-02-26 14:00:08.951206,5,-8.673973e-06,,,,
2022-02-26 14:00:08.951706,5,-2.458634e-06,,,,
2022-02-26 14:00:08.952206,5,4.2342155e-05,,,,
2022-02-26 14:00:08.952706,5,9.1834954e-05,,,,
2022-02-26 14:00:08.953206,5,0.000114295544,,,,
2022-02-26 14:00:08.953706,5,0.0001152709,,,,
2022-02-26 14:00:08.954206,5,0.000110674206,,,,
2022-02-26 14:00:08.954706,5,0.000101017,,,,
2022-02-26 14:00:08.955206,5,8.879808e-05,,,,
2022-02-26 14:00:08.955706,5,8.414155e-05,,,,
2022-02-26 14:00:08.956206,5,8.603986e-05,,,,
2022-02-26 14:00:08.956706,5,8.439895e-05,,,,
2022-02-26 14:00:08.957206,5,7.9544836e-05,,,,
2022-02-26 14:00:08.957706,5,8.256527e-05,,,,
2022-02-26 14:00:08.958206,5,0.00010383869,,,,
2022-02-26 14:00:08.958706,5,0.00013990352,,,,
2022-02-26 14:00:08.959206,5,0.00017343056,,,,
2022-02-26 14:00:08.959706,5,0.00020096332,,,,
2022-02-26 14:00:08.960206,5,0.00023453277,,,,
2022-02-26 14:00:08.960706,5,0.0002679789,,,,
2022-02-26 14:00:08.961206,5,0.00027907552,,,,
2022-02-26 14:00:08.961706,5,0.0002578477,,,,
2022-02-26 14:00:08.962206,5,0.00021177149,,,,
2022-02-26 14:00:08.962706,5,0.00015683034,,,,
2022-02-26 14:00:08.963206,5,0.00011601946,,,,
2022-02-26 14:00:08.963706,5,0.00011304343,,,,
2022-02-26 14:00:08.964206,5,0.00013876916,,,,
2022-02-26 14:00:08.964706,5,0.00014964264,,,,
2022-02-26 14:00:08.965206,5,0.00012539141,,,,
2022-02-26 14:00:08.965706,5,8.293326e-05,,,,
2022-02-26 14:00:08.966206,5,3.7029822e-05,,,,
2022-02-26 14:00:08.966706,5,-7.747082e-06,,,,
2022-02-26 14:00:08.967206,5,-4.34485e-05,,,,
2022-02-26 14:00:08.967706,5,-6.2517145e-05,,,,
2022-02-26 14:00:08.968206,5,-6.647947e-05,,,,
2022-02-26 14:00:08.968706,5,-6.9352194e-05,,,,
2022-02-26 14:00:08.969206,5,-8.581548e-05,,,,
2022-02-26 14:00:08.969706,5,-0.00010426646,,,,
2022-02-26 14:00:08.970206,5,-9.357335e-05,,,,
2022-02-26 14:00:08.970706,5,-3.893292e-05,,,,
2022-02-26 14:00:08.971206,5,4.005445e-05,,,,
2022-02-26 14:00:08.971706,5,9.936424e-05,,,,
2022-02-26 14:00:08.972206,5,0.00011460729,,,,
2022-02-26 14:00:08.972706,5,9.9039244e-05,,,,
2022-02-26 14:00:08.973206,5,6.506995e-05,,,,
2022-02-26 14:00:08.973706,5,1.387911e-05,,,,
2022-02-26 14:00:08.974206,5,-4.4124085e-05,,,,
2022-02-26 14:00:08.974706,5,-8.947115e-05,,,,
2022-02-26 14:00:08.975206,5,-0.00010278381,,,,
2022-02-26 14:00:08.975706,5,-7.835772e-05,,,,
2022-02-26 14:00:08.976206,5,-3.0890027e-05,,,,
2022-02-26 14:00:08.976706,5,1.6324506e-05,,,,
2022-02-26 14:00:08.977206,5,4.3255546e-05,,,,
2022-02-26 14:00:08.977706,5,4.9647668e-05,,,,
2022-02-26 14:00:08.978206,5,5.692621e-05,,,,
2022-02-26 14:00:08.978706,5,7.9307756e-05,,,,
2022-02-26 14:00:08.979206,5,0.00011111506,,,,
2022-02-26 14:00:08.979706,5,0.00013953984,,,,
2022-02-26 14:00:08.980206,5,0.00015864366,,,,
2022-02-26 14:00:08.980706,5,0.0001738728,,,,
2022-02-26 14:00:08.981206,5,0.00018781134,,,,
2022-02-26 14:00:08.981706,5,0.00019226903,,,,
2022-02-26 14:00:08.982206,5,0.00018453566,,,,
2022-02-26 14:00:08.982706,5,0.00017211237,,,,
2022-02-26 14:00:08.983206,5,0.00015666737,,,,
2022-02-26 14:00:08.983706,5,0.00013550767,,,,
2022-02-26 14:00:08.984206,5,0.00011534945,,,,
2022-02-26 14:00:08.984706,5,0.0001060056,,,,
2022-02-26 14:00:08.985206,5,0.00010874933,,,,
2022-02-26 14:00:08.985706,5,0.00011308072,,,,
2022-02-26 14:00:08.986206,5,0.00010295256,,,,
2022-02-26 14:00:08.986706,5,8.132391e-05,,,,
2022-02-26 14:00:08.987206,5,6.977525e-05,,,,
2022-02-26 14:00:08.987706,5,7.0973256e-05,,,,
2022-02-26 14:00:08.988206,5,6.362933e-05,,,,
2022-02-26 14:00:08.988706,5,3.041637e-05,,,,
2022-02-26 14:00:08.989206,5,-2.0399446e-05,,,,
2022-02-26 14:00:08.989706,5,-5.3377964e-05,,,,
2022-02-26 14:00:08.990206,5,-4.1304564e-05,,,,
2022-02-26 14:00:08.990706,5,9.672299e-06,,,,
2022-02-26 14:00:08.991206,5,7.238219e-05,,,,
2022-02-26 14:00:08.991706,5,0.0001181499,,,,
2022-02-26 14:00:08.992206,5,0.00014502867,,,,
2022-02-26 14:00:08.992706,5,0.00017452255,,,,
2022-02-26 14:00:08.993206,5,0.00021196854,,,,
2022-02-26 14:00:08.993706,5,0.00024191468,,,,
2022-02-26 14:00:08.994206,5,0.00025014632,,,,
2022-02-26 14:00:08.994706,5,0.00024054492,,,,
2022-02-26 14:00:08.995206,5,0.00023167198,,,,
2022-02-26 14:00:08.995706,5,0.00022235002,,,,
2022-02-26 14:00:08.996206,5,0.00018462513,,,,
2022-02-26 14:00:08.996706,5,9.9249555e-05,,,,
2022-02-26 14:00:08.997206,5,-1.8804214e-05,,,,
2022-02-26 14:00:08.997706,5,-0.0001244747,,,,
2022-02-26 14:00:08.998206,5,-0.00017380164,,,,
2022-02-26 14:00:08.998706,5,-0.00014775783,,,,
2022-02-26 14:00:08.999206,5,-7.003999e-05,,,,
2022-02-26 14:00:08.999706,5,-4.4814046e-06,,,,
2022-02-26 14:00:09.000206,5,1.2961894e-05,,,,
2022-02-26 14:00:09.000706,5,1.3948369e-06,,,,
2022-02-26 14:00:09.001206,5,-1.627316e-05,,,,
2022-02-26 14:00:09.001706,5,-3.1209944e-05,,,,
2022-02-26 14:00:09.002206,5,-3.8918555e-05,,,,
2022-02-26 14:00:09.002706,5,-3.4602148e-05,,,,
2022-02-26 14:00:09.003206,5,-5.688047e-06,,,,
2022-02-26 14:00:09.003706,5,4.6976824e-05,,,,
2022-02-26 14:00:09.004206,5,9.415615e-05,,,,
2022-02-26 14:00:09.004706,5,0.00011658028,,,,
2022-02-26 14:00:09.005206,5,0.0001230938,,,,
2022-02-26 14:00:09.005706,5,0.00012351267,,,,
2022-02-26 14:00:09.006206,5,0.00012066908,,,,
2022-02-26 14:00:09.006706,5,0.000118171476,,,,
2022-02-26 14:00:09.007206,5,0.00011215364,,,,
2022-02-26 14:00:09.007706,5,8.7144974e-05,,,,
2022-02-26 14:00:09.008206,5,4.2399402e-05,,,,
2022-02-26 14:00:09.008706,5,6.0796874e-06,,,,
2022-02-26 14:00:09.009206,5,4.0441178e-06,,,,
2022-02-26 14:00:09.009706,5,3.4669643e-05,,,,
2022-02-26 14:00:09.010206,5,7.1234856e-05,,,,
2022-02-26 14:00:09.010706,5,8.731711e-05,,,,
2022-02-26 14:00:09.011206,5,8.957559e-05,,,,
2022-02-26 14:00:09.011706,5,0.00010227944,,,,
2022-02-26 14:00:09.012206,5,0.00013273978,,,,
2022-02-26 14:00:09.012706,5,0.00017614495,,,,
2022-02-26 14:00:09.013206,5,0.00022623118,,,,
2022-02-26 14:00:09.013706,5,0.0002656691,,,,
2022-02-26 14:00:09.014206,5,0.00026736408,,,,
2022-02-26 14:00:09.014706,5,0.00021856856,,,,
2022-02-26 14:00:09.015206,5,0.00014039967,,,,
2022-02-26 14:00:09.015706,5,7.805766e-05,,,,
2022-02-26 14:00:09.016206,5,5.9099977e-05,,,,
2022-02-26 14:00:09.016706,5,7.057954e-05,,,,
2022-02-26 14:00:09.017206,5,8.145236e-05,,,,
2022-02-26 14:00:09.017706,5,6.3624015e-05,,,,
2022-02-26 14:00:09.018206,5,7.660006e-06,,,,
2022-02-26 14:00:09.018706,5,-6.6404486e-05,,,,
2022-02-26 14:00:09.019206,5,-0.00012419441,,,,
2022-02-26 14:00:09.019706,5,-0.00014239977,,,,
2022-02-26 14:00:09.020206,5,-0.00012376683,,,,
2022-02-26 14:00:09.020706,5,-8.371145e-05,,,,
2022-02-26 14:00:09.021206,5,-2.8224224e-05,,,,
2022-02-26 14:00:09.021706,5,3.2520737e-05,,,,
2022-02-26 14:00:09.022206,5,7.290116e-05,,,,
2022-02-26 14:00:09.022706,5,8.897613e-05,,,,
2022-02-26 14:00:09.023206,5,0.0001065595,,,,
2022-02-26 14:00:09.023706,5,0.00013253538,,,,
2022-02-26 14:00:09.024206,5,0.00015119693,,,,
2022-02-26 14:00:09.024706,5,0.00016107871,,,,
2022-02-26 14:00:09.025206,5,0.00017234379,,,,
2022-02-26 14:00:09.025706,5,0.00018726884,,,,
2022-02-26 14:00:09.026206,5,0.00020011021,,,,
2022-02-26 14:00:09.026706,5,0.00020331237,,,,
2022-02-26 14:00:09.027206,5,0.00019478741,,,,
2022-02-26 14:00:09.027706,5,0.00018158786,,,,
2022-02-26 14:00:09.028206,5,0.00017432866,,,,
2022-02-26 14:00:09.028706,5,0.00017703093,,,,
2022-02-26 14:00:09.029206,5,0.00018133683,,,,
2022-02-26 14:00:09.029706,5,0.00017454926,,,,
2022-02-26 14:00:09.030206,5,0.00014960502,,,,
2022-02-26 14:00:09.030706,5,0.00010737442,,,,
2022-02-26 14:00:09.031206,5,5.4507072e-05,,,,
2022-02-26 14:00:09.031706,5,-4.1503977e-06,,,,
2022-02-26 14:00:09.032206,5,-6.155145e-05,,,,
2022-02-26 14:00:09.032706,5,-9.7049844e-05,,,,
2022-02-26 14:00:09.033206,5,-9.245068e-05,,,,
2022-02-26 14:00:09.033706,5,-5.4522137e-05,,,,
2022-02-26 14:00:09.034206,5,-4.20076e-06,,,,
2022-02-26 14:00:09.034706,5,4.3804255e-05,,,,
2022-02-26 14:00:09.035206,5,8.419924e-05,,,,
2022-02-26 14:00:09.035706,5,0.00011591326,,,,
2022-02-26 14:00:09.036206,5,0.00013979975,,,,
2022-02-26 14:00:09.036706,5,0.0001583452,,,,
2022-02-26 14:00:09.037206,5,0.00017160195,,,,
2022-02-26 14:00:09.037706,5,0.00017800416,,,,
2022-02-26 14:00:09.038206,5,0.00018050743,,,,
2022-02-26 14:00:09.038706,5,0.00017959728,,,,
2022-02-26 14:00:09.039206,5,0.00016452634,,,,
2022-02-26 14:00:09.039706,5,0.00012762322,,,,
2022-02-26 14:00:09.040206,5,7.794994e-05,,,,
2022-02-26 14:00:09.040706,5,3.4037967e-05,,,,
2022-02-26 14:00:09.041206,5,1.1397501e-05,,,,
2022-02-26 14:00:09.041706,5,8.975245e-06,,,,
2022-02-26 14:00:09.042206,5,1.3077724e-05,,,,
2022-02-26 14:00:09.042706,5,1.9715473e-05,,,,
2022-02-26 14:00:09.043206,5,3.453098e-05,,,,
2022-02-26 14:00:09.043706,5,5.8424426e-05,,,,
2022-02-26 14:00:09.044206,5,8.7133005e-05,,,,
2022-02-26 14:00:09.044706,5,0.00011655984,,,,
2022-02-26 14:00:09.045206,5,0.00014714593,,,,
2022-02-26 14:00:09.045706,5,0.0001816933,,,,
2022-02-26 14:00:09.046206,5,0.00021704647,,,,
2022-02-26 14:00:09.046706,5,0.0002438845,,,,
2022-02-26 14:00:09.047206,5,0.00025350344,,,,
2022-02-26 14:00:09.047706,5,0.00023905866,,,,
2022-02-26 14:00:09.048206,5,0.00019307456,,,,
2022-02-26 14:00:09.048706,5,0.00012092955,,,,
2022-02-26 14:00:09.049206,5,5.228855e-05,,,,
2022-02-26 14:00:09.049706,5,2.0735863e-05,,,,
2022-02-26 14:00:09.050206,5,4.0046674e-05,,,,
2022-02-26 14:00:09.050706,5,9.505251e-05,,,,
2022-02-26 14:00:09.051206,5,0.00015005101,,,,
2022-02-26 14:00:09.051706,5,0.00017765391,,,,
2022-02-26 14:00:09.052206,5,0.00017739655,,,,
2022-02-26 14:00:09.052706,5,0.00016359305,,,,
2022-02-26 14:00:09.053206,5,0.00013310983,,,,
2022-02-26 14:00:09.053706,5,5.986403e-05,,,,
2022-02-26 14:00:09.054206,5,-6.4311105e-05,,,,
2022-02-26 14:00:09.054706,5,-0.00020431179,,,,
2022-02-26 14:00:09.055206,5,-0.00030297734,,,,
2022-02-26 14:00:09.055706,5,-0.00032572448,,,,
2022-02-26 14:00:09.056206,5,-0.00029000343,,,,
2022-02-26 14:00:09.056706,5,-0.00023658501,,,,
2022-02-26 14:00:09.057206,5,-0.00018533773,,,,
2022-02-26 14:00:09.057706,5,-0.00013588755,,,,
2022-02-26 14:00:09.058206,5,-8.540068e-05,,,,
2022-02-26 14:00:09.058706,5,-3.1537933e-05,,,,
2022-02-26 14:00:09.059206,5,2.6445348e-05,,,,
2022-02-26 14:00:09.059706,5,7.996377e-05,,,,
2022-02-26 14:00:09.060206,5,0.00011649269,,,,
2022-02-26 14:00:09.060706,5,0.00013489836,,,,
2022-02-26 14:00:09.061206,5,0.00014566757,,,,
2022-02-26 14:00:09.061706,5,0.00016012324,,,,
2022-02-26 14:00:09.062206,5,0.00017861041,,,,
2022-02-26 14:00:09.062706,5,0.00018720959,,,,
2022-02-26 14:00:09.063206,5,0.00016913419,,,,
2022-02-26 14:00:09.063706,5,0.00011956553,,,,
2022-02-26 14:00:09.064206,5,5.558877e-05,,,,
2022-02-26 14:00:09.064706,5,7.6274077e-06,,,,
2022-02-26 14:00:09.065206,5,-4.5847646e-06,,,,
2022-02-26 14:00:09.065706,5,8.760385e-06,,,,
2022-02-26 14:00:09.066206,5,1.3357126e-05,,,,
2022-02-26 14:00:09.066706,5,-3.4179463e-06,,,,
2022-02-26 14:00:09.067206,5,-1.39557205e-05,,,,
2022-02-26 14:00:09.067706,5,3.0108054e-06,,,,
2022-02-26 14:00:09.068206,5,3.8389564e-05,,,,
2022-02-26 14:00:09.068706,5,7.178162e-05,,,,
2022-02-26 14:00:09.069206,5,8.785121e-05,,,,
2022-02-26 14:00:09.069706,5,8.672792e-05,,,,
2022-02-26 14:00:09.070206,5,8.4966945e-05,,,,
2022-02-26 14:00:09.070706,5,0.00010303265,,,,
2022-02-26 14:00:09.071206,5,0.00013985614,,,,
2022-02-26 14:00:09.071706,5,0.00016835156,,,,
2022-02-26 14:00:09.072206,5,0.0001745218,,,,
2022-02-26 14:00:09.072706,5,0.00017217203,,,,
2022-02-26 14:00:09.073206,5,0.00017607065,,,,
2022-02-26 14:00:09.073706,5,0.00018784795,,,,
2022-02-26 14:00:09.074206,5,0.00019784266,,,,
2022-02-26 14:00:09.074706,5,0.00019680322,,,,
2022-02-26 14:00:09.075206,5,0.00018750066,,,,
2022-02-26 14:00:09.075706,5,0.00017583501,,,,
2022-02-26 14:00:09.076206,5,0.00016215755,,,,
2022-02-26 14:00:09.076706,5,0.00014804507,,,,
2022-02-26 14:00:09.077206,5,0.00013939363,,,,
2022-02-26 14:00:09.077706,5,0.0001401063,,,,
2022-02-26 14:00:09.078206,5,0.00014523933,,,,
2022-02-26 14:00:09.078706,5,0.00014104793,,,,
2022-02-26 14:00:09.079206,5,0.00012636403,,,,
2022-02-26 14:00:09.079706,5,0.00012596087,,,,
2022-02-26 14:00:09.080206,5,0.00015071113,,,,
2022-02-26 14:00:09.080706,5,0.00017506171,,,,
2022-02-26 14:00:09.081206,5,0.00018211425,,,,
2022-02-26 14:00:09.081706,5,0.00017711651,,,,
2022-02-26 14:00:09.082206,5,0.00015183135,,,,
2022-02-26 14:00:09.082706,5,9.390688e-05,,,,
2022-02-26 14:00:09.083206,5,1.7869426e-05,,,,
2022-02-26 14:00:09.083706,5,-4.4705674e-05,,,,
2022-02-26 14:00:09.084206,5,-6.635633e-05,,,,
2022-02-26 14:00:09.084706,5,-4.715532e-05,,,,
2022-02-26 14:00:09.085206,5,-1.7526036e-05,,,,
2022-02-26 14:00:09.085706,5,9.509054e-06,,,,
2022-02-26 14:00:09.086206,5,4.82768e-05,,,,
2022-02-26 14:00:09.086706,5,9.664981e-05,,,,
2022-02-26 14:00:09.087206,5,0.00013362768,,,,
2022-02-26 14:00:09.087706,5,0.00014632267,,,,
2022-02-26 14:00:09.088206,5,0.00013447243,,,,
2022-02-26 14:00:09.088706,5,0.00010273005,,,,
2022-02-26 14:00:09.089206,5,5.993487e-05,,,,
2022-02-26 14:00:09.089706,5,2.1526248e-05,,,,
2022-02-26 14:00:09.090206,5,1.7176244e-06,,,,
2022-02-26 14:00:09.090706,5,5.828918e-06,,,,
2022-02-26 14:00:09.091206,5,3.104891e-05,,,,
2022-02-26 14:00:09.091706,5,6.326108e-05,,,,
2022-02-26 14:00:09.092206,5,7.892973e-05,,,,
2022-02-26 14:00:09.092706,5,6.569657e-05,,,,
2022-02-26 14:00:09.093206,5,3.3762186e-05,,,,
2022-02-26 14:00:09.093706,5,5.663378e-06,,,,
2022-02-26 14:00:09.094206,5,3.861201e-06,,,,
2022-02-26 14:00:09.094706,5,2.9199331e-05,,,,
2022-02-26 14:00:09.095206,5,5.753953e-05,,,,
2022-02-26 14:00:09.095706,5,7.333121e-05,,,,
2022-02-26 14:00:09.096206,5,8.047812e-05,,,,
2022-02-26 14:00:09.096706,5,8.428446e-05,,,,
2022-02-26 14:00:09.097206,5,8.6755994e-05,,,,
2022-02-26 14:00:09.097706,5,8.996228e-05,,,,
2022-02-26 14:00:09.098206,5,9.4286755e-05,,,,
2022-02-26 14:00:09.098706,5,9.674926e-05,,,,
2022-02-26 14:00:09.099206,5,9.159681e-05,,,,
2022-02-26 14:00:09.099706,5,7.562414e-05,,,,
2022-02-26 14:00:09.100206,5,5.6437715e-05,,,,
2022-02-26 14:00:09.100706,5,4.574066e-05,,,,
2022-02-26 14:00:09.101206,5,4.367288e-05,,,,
2022-02-26 14:00:09.101706,5,4.70307e-05,,,,
2022-02-26 14:00:09.102206,5,6.39379e-05,,,,
2022-02-26 14:00:09.102706,5,9.487395e-05,,,,
2022-02-26 14:00:09.103206,5,0.00011868292,,,,
2022-02-26 14:00:09.103706,5,0.000120009856,,,,
2022-02-26 14:00:09.104206,5,0.00010230046,,,,
2022-02-26 14:00:09.104706,5,6.9412374e-05,,,,
2022-02-26 14:00:09.105206,5,2.602975e-05,,,,
2022-02-26 14:00:09.105706,5,-1.2651244e-05,,,,
2022-02-26 14:00:09.106206,5,-3.4407247e-05,,,,
2022-02-26 14:00:09.106706,5,-4.009441e-05,,,,
2022-02-26 14:00:09.107206,5,-3.155973e-05,,,,
2022-02-26 14:00:09.107706,5,-6.894681e-06,,,,
2022-02-26 14:00:09.108206,5,2.6377613e-05,,,,
2022-02-26 14:00:09.108706,5,5.156184e-05,,,,
2022-02-26 14:00:09.109206,5,6.3650004e-05,,,,
2022-02-26 14:00:09.109706,5,7.600147e-05,,,,
2022-02-26 14:00:09.110206,5,0.000105806976,,,,
2022-02-26 14:00:09.110706,5,0.00015541501,,,,
2022-02-26 14:00:09.111206,5,0.00020748591,,,,
2022-02-26 14:00:09.111706,5,0.00024536808,,,,
2022-02-26 14:00:09.112206,5,0.00026608905,,,,
2022-02-26 14:00:09.112706,5,0.00027314518,,,,
2022-02-26 14:00:09.113206,5,0.00026882096,,,,
2022-02-26 14:00:09.113706,5,0.00024625633,,,,
2022-02-26 14:00:09.114206,5,0.00019051583,,,,
2022-02-26 14:00:09.114706,5,9.02524e-05,,,,
2022-02-26 14:00:09.115206,5,-4.303408e-05,,,,
2022-02-26 14:00:09.115706,5,-0.00016711456,,,,
2022-02-26 14:00:09.116206,5,-0.00023676123,,,,
2022-02-26 14:00:09.116706,5,-0.00023004125,,,,
2022-02-26 14:00:09.117206,5,-0.00016609939,,,,
2022-02-26 14:00:09.117706,5,-0.00010288426,,,,
2022-02-26 14:00:09.118206,5,-8.255738e-05,,,,
2022-02-26 14:00:09.118706,5,-9.755484e-05,,,,
2022-02-26 14:00:09.119206,5,-0.0001151297,,,,
2022-02-26 14:00:09.119706,5,-0.00010893362,,,,
2022-02-26 14:00:09.120206,5,-7.0877875e-05,,,,
2022-02-26 14:00:09.120706,5,-1.31263405e-05,,,,
2022-02-26 14:00:09.121206,5,3.8171373e-05,,,,
2022-02-26 14:00:09.121706,5,7.0611444e-05,,,,
2022-02-26 14:00:09.122206,5,9.359652e-05,,,,
2022-02-26 14:00:09.122706,5,0.00011352546,,,,
2022-02-26 14:00:09.123206,5,0.0001281275,,,,
2022-02-26 14:00:09.123706,5,0.00013609893,,,,
2022-02-26 14:00:09.124206,5,0.00013957045,,,,
2022-02-26 14:00:09.124706,5,0.00014418151,,,,
2022-02-26 14:00:09.125206,5,0.00015287712,,,,
2022-02-26 14:00:09.125706,5,0.00016119677,,,,
2022-02-26 14:00:09.126206,5,0.0001632894,,,,
2022-02-26 14:00:09.126706,5,0.00015866442,,,,
2022-02-26 14:00:09.127206,5,0.0001545431,,,,
2022-02-26 14:00:09.127706,5,0.00015881275,,,,
2022-02-26 14:00:09.128206,5,0.0001691012,,,,
2022-02-26 14:00:09.128706,5,0.00017648305,,,,
2022-02-26 14:00:09.129206,5,0.00017438777,,,,
2022-02-26 14:00:09.129706,5,0.00015696329,,,,
2022-02-26 14:00:09.130206,5,0.00011913921,,,,
2022-02-26 14:00:09.130706,5,6.903086e-05,,,,
2022-02-26 14:00:09.131206,5,2.9695051e-05,,,,
2022-02-26 14:00:09.131706,5,1.7423466e-05,,,,
2022-02-26 14:00:09.132206,5,2.6415872e-05,,,,
2022-02-26 14:00:09.132706,5,3.6316127e-05,,,,
2022-02-26 14:00:09.133206,5,3.616171e-05,,,,
2022-02-26 14:00:09.133706,5,3.8032747e-05,,,,
2022-02-26 14:00:09.134206,5,5.7161313e-05,,,,
2022-02-26 14:00:09.134706,5,9.2580245e-05,,,,
2022-02-26 14:00:09.135206,5,0.00012801132,,,,
2022-02-26 14:00:09.135706,5,0.00014395552,,,,
2022-02-26 14:00:09.136206,5,0.00014043103,,,,
2022-02-26 14:00:09.136706,5,0.00013178687,,,,
2022-02-26 14:00:09.137206,5,0.000116647236,,,,
2022-02-26 14:00:09.137706,5,8.884337e-05,,,,
2022-02-26 14:00:09.138206,5,6.321946e-05,,,,
2022-02-26 14:00:09.138706,5,6.0091865e-05,,,,
2022-02-26 14:00:09.139206,5,8.358498e-05,,,,
2022-02-26 14:00:09.139706,5,0.000116622345,,,,
2022-02-26 14:00:09.140206,5,0.00012994488,,,,
2022-02-26 14:00:09.140706,5,0.00011129653,,,,
2022-02-26 14:00:09.141206,5,7.688343e-05,,,,
2022-02-26 14:00:09.141706,5,5.062809e-05,,,,
2022-02-26 14:00:09.142206,5,4.2234424e-05,,,,
2022-02-26 14:00:09.142706,5,4.4040957e-05,,,,
2022-02-26 14:00:09.143206,5,4.7730475e-05,,,,
2022-02-26 14:00:09.143706,5,5.323566e-05,,,,
2022-02-26 14:00:09.144206,5,5.9895883e-05,,,,
2022-02-26 14:00:09.144706,5,6.583262e-05,,,,
2022-02-26 14:00:09.145206,5,7.694424e-05,,,,
2022-02-26 14:00:09.145706,5,9.6307194e-05,,,,
2022-02-26 14:00:09.146206,5,0.00010709987,,,,
2022-02-26 14:00:09.146706,5,9.11529e-05,,,,
2022-02-26 14:00:09.147206,5,5.241365e-05,,,,
2022-02-26 14:00:09.147706,5,1.3439428e-05,,,,
2022-02-26 14:00:09.148206,5,1.8422199e-07,,,,
2022-02-26 14:00:09.148706,5,1.0856895e-05,,,,
2022-02-26 14:00:09.149206,5,1.414705e-05,,,,
2022-02-26 14:00:09.149706,5,-3.9428137e-06,,,,
2022-02-26 14:00:09.150206,5,-2.4388657e-05,,,,
2022-02-26 14:00:09.150706,5,-2.0447185e-05,,,,
2022-02-26 14:00:09.151206,5,1.175331e-05,,,,
2022-02-26 14:00:09.151706,5,4.34345e-05,,,,
2022-02-26 14:00:09.152206,5,5.1586892e-05,,,,
2022-02-26 14:00:09.152706,5,4.4546414e-05,,,,
2022-02-26 14:00:09.153206,5,3.9355153e-05,,,,
2022-02-26 14:00:09.153706,5,4.396389e-05,,,,
2022-02-26 14:00:09.154206,5,5.251083e-05,,,,
2022-02-26 14:00:09.154706,5,5.495228e-05,,,,
2022-02-26 14:00:09.155206,5,5.7974717e-05,,,,
2022-02-26 14:00:09.155706,5,7.37635e-05,,,,
2022-02-26 14:00:09.156206,5,9.8039694e-05,,,,
2022-02-26 14:00:09.156706,5,0.000119062366,,,,
2022-02-26 14:00:09.157206,5,0.00013163574,,,,
2022-02-26 14:00:09.157706,5,0.00013996109,,,,
2022-02-26 14:00:09.158206,5,0.00015320718,,,,
2022-02-26 14:00:09.158706,5,0.00017333291,,,,
2022-02-26 14:00:09.159206,5,0.00018790868,,,,
2022-02-26 14:00:09.159706,5,0.00017557802,,,,
2022-02-26 14:00:09.160206,5,0.00013093972,,,,
2022-02-26 14:00:09.160706,5,7.923912e-05,,,,
2022-02-26 14:00:09.161206,5,4.9177663e-05,,,,
2022-02-26 14:00:09.161706,5,4.9250364e-05,,,,
2022-02-26 14:00:09.162206,5,6.512425e-05,,,,
2022-02-26 14:00:09.162706,5,7.045994e-05,,,,
2022-02-26 14:00:09.163206,5,5.930539e-05,,,,
2022-02-26 14:00:09.163706,5,4.734563e-05,,,,
2022-02-26 14:00:09.164206,5,3.9147162e-05,,,,
2022-02-26 14:00:09.164706,5,3.3546024e-05,,,,
2022-02-26 14:00:09.165206,5,4.5301233e-05,,,,
2022-02-26 14:00:09.165706,5,8.429422e-05,,,,
2022-02-26 14:00:09.166206,5,0.00013654843,,,,
2022-02-26 14:00:09.166706,5,0.00018408443,,,,
2022-02-26 14:00:09.167206,5,0.00021913846,,,,
2022-02-26 14:00:09.167706,5,0.00024286678,,,,
2022-02-26 14:00:09.168206,5,0.00026225584,,,,
2022-02-26 14:00:09.168706,5,0.00028067018,,,,
2022-02-26 14:00:09.169206,5,0.0002933784,,,,
2022-02-26 14:00:09.169706,5,0.0002912435,,,,
2022-02-26 14:00:09.170206,5,0.00026550767,,,,
2022-02-26 14:00:09.170706,5,0.00020642015,,,,
2022-02-26 14:00:09.171206,5,9.7828415e-05,,,,
2022-02-26 14:00:09.171706,5,-5.9377206e-05,,,,
2022-02-26 14:00:09.172206,5,-0.00021278489,,,,
2022-02-26 14:00:09.172706,5,-0.0002917247,,,,
2022-02-26 14:00:09.173206,5,-0.00027354772,,,,
2022-02-26 14:00:09.173706,5,-0.00019718721,,,,
2022-02-26 14:00:09.174206,5,-0.00012928528,,,,
2022-02-26 14:00:09.174706,5,-0.00010698833,,,,
2022-02-26 14:00:09.175206,5,-0.00011820569,,,,
2022-02-26 14:00:09.175706,5,-0.00013386528,,,,
2022-02-26 14:00:09.176206,5,-0.00012753841,,,,
2022-02-26 14:00:09.176706,5,-8.98534e-05,,,,
2022-02-26 14:00:09.177206,5,-3.737189e-05,,,,
2022-02-26 14:00:09.177706,5,7.743687e-06,,,,
2022-02-26 14:00:09.178206,5,3.8798542e-05,,,,
2022-02-26 14:00:09.178706,5,6.398508e-05,,,,
2022-02-26 14:00:09.179206,5,9.129868e-05,,,,
2022-02-26 14:00:09.179706,5,0.00012076729,,,,
2022-02-26 14:00:09.180206,5,0.00014768085,,,,
2022-02-26 14:00:09.180706,5,0.0001673978,,,,
2022-02-26 14:00:09.181206,5,0.00018205012,,,,
2022-02-26 14:00:09.181706,5,0.00019722222,,,,
2022-02-26 14:00:09.182206,5,0.00021095286,,,,
2022-02-26 14:00:09.182706,5,0.0002164469,,,,
2022-02-26 14:00:09.183206,5,0.00021077215,,,,
2022-02-26 14:00:09.183706,5,0.00019835158,,,,
2022-02-26 14:00:09.184206,5,0.00018714464,,,,
2022-02-26 14:00:09.184706,5,0.00017347455,,,,
2022-02-26 14:00:09.185206,5,0.00014256006,,,,
2022-02-26 14:00:09.185706,5,9.095261e-05,,,,
2022-02-26 14:00:09.186206,5,3.497098e-05,,,,
2022-02-26 14:00:09.186706,5,-1.1732536e-06,,,,
2022-02-26 14:00:09.187206,5,-7.090431e-06,,,,
2022-02-26 14:00:09.187706,5,4.8410725e-06,,,,
2022-02-26 14:00:09.188206,5,1.7494796e-05,,,,
2022-02-26 14:00:09.188706,5,2.261794e-05,,,,
2022-02-26 14:00:09.189206,5,2.2050832e-05,,,,
2022-02-26 14:00:09.189706,5,2.5458392e-05,,,,
2022-02-26 14:00:09.190206,5,3.966791e-05,,,,
2022-02-26 14:00:09.190706,5,6.297129e-05,,,,
2022-02-26 14:00:09.191206,5,8.964707e-05,,,,
2022-02-26 14:00:09.191706,5,0.000113134316,,,,
2022-02-26 14:00:09.192206,5,0.00012581122,,,,
2022-02-26 14:00:09.192706,5,0.00011982626,,,,
2022-02-26 14:00:09.193206,5,9.2109025e-05,,,,
2022-02-26 14:00:09.193706,5,5.548064e-05,,,,
2022-02-26 14:00:09.194206,5,3.649403e-05,,,,
2022-02-26 14:00:09.194706,5,4.944593e-05,,,,
2022-02-26 14:00:09.195206,5,8.0986465e-05,,,,
2022-02-26 14:00:09.195706,5,0.00010306982,,,,
2022-02-26 14:00:09.196206,5,0.00010064584,,,,
2022-02-26 14:00:09.196706,5,8.380142e-05,,,,
2022-02-26 14:00:09.197206,5,6.886456e-05,,,,
2022-02-26 14:00:09.197706,5,6.238294e-05,,,,
2022-02-26 14:00:09.198206,5,5.923277e-05,,,,
2022-02-26 14:00:09.198706,5,5.0532017e-05,,,,
2022-02-26 14:00:09.199206,5,4.2099102e-05,,,,
2022-02-26 14:00:09.199706,5,4.613532e-05,,,,
2022-02-26 14:00:09.200206,5,5.5784752e-05,,,,
2022-02-26 14:00:09.200706,5,5.880531e-05,,,,
2022-02-26 14:00:09.201206,5,6.1001403e-05,,,,
2022-02-26 14:00:09.201706,5,7.1691626e-05,,,,
2022-02-26 14:00:09.202206,5,8.813415e-05,,,,
2022-02-26 14:00:09.202706,5,0.00010395147,,,,
2022-02-26 14:00:09.203206,5,0.00011457759,,,,
2022-02-26 14:00:09.203706,5,0.000115494775,,,,
2022-02-26 14:00:09.204206,5,0.00010695929,,,,
2022-02-26 14:00:09.204706,5,9.748436e-05,,,,
2022-02-26 14:00:09.205206,5,9.50745e-05,,,,
2022-02-26 14:00:09.205706,5,9.973792e-05,,,,
2022-02-26 14:00:09.206206,5,0.000107547596,,,,
2022-02-26 14:00:09.206706,5,0.00011467263,,,,
2022-02-26 14:00:09.207206,5,0.00011775945,,,,
2022-02-26 14:00:09.207706,5,0.00011491722,,,,
2022-02-26 14:00:09.208206,5,0.00010694379,,,,
2022-02-26 14:00:09.208706,5,9.952231e-05,,,,
2022-02-26 14:00:09.209206,5,0.0001026122,,,,
2022-02-26 14:00:09.209706,5,0.00011476142,,,,
2022-02-26 14:00:09.210206,5,0.000114091155,,,,
2022-02-26 14:00:09.210706,5,8.9199115e-05,,,,
2022-02-26 14:00:09.211206,5,5.710953e-05,,,,
2022-02-26 14:00:09.211706,5,3.2332046e-05,,,,
2022-02-26 14:00:09.212206,5,1.4988193e-05,,,,
2022-02-26 14:00:09.212706,5,8.8838615e-06,,,,
2022-02-26 14:00:09.213206,5,1.8516252e-05,,,,
2022-02-26 14:00:09.213706,5,3.800692e-05,,,,
2022-02-26 14:00:09.214206,5,5.6057346e-05,,,,
2022-02-26 14:00:09.214706,5,6.377086e-05,,,,
2022-02-26 14:00:09.215206,5,6.484037e-05,,,,
2022-02-26 14:00:09.215706,5,7.543509e-05,,,,
2022-02-26 14:00:09.216206,5,9.796066e-05,,,,
2022-02-26 14:00:09.216706,5,0.00011662769,,,,
2022-02-26 14:00:09.217206,5,0.00012720969,,,,
2022-02-26 14:00:09.217706,5,0.00014173918,,,,
2022-02-26 14:00:09.218206,5,0.00016940449,,,,
2022-02-26 14:00:09.218706,5,0.00020602146,,,,
2022-02-26 14:00:09.219206,5,0.00023480735,,,,
2022-02-26 14:00:09.219706,5,0.00024212766,,,,
2022-02-26 14:00:09.220206,5,0.00022805588,,,,
2022-02-26 14:00:09.220706,5,0.0002006102,,,,
2022-02-26 14:00:09.221206,5,0.00016901293,,,,
2022-02-26 14:00:09.221706,5,0.0001344129,,,,
2022-02-26 14:00:09.222206,5,9.0429545e-05,,,,
2022-02-26 14:00:09.222706,5,3.611545e-05,,,,
2022-02-26 14:00:09.223206,5,-2.0340638e-05,,,,
2022-02-26 14:00:09.223706,5,-6.696787e-05,,,,
2022-02-26 14:00:09.224206,5,-9.826366e-05,,,,
2022-02-26 14:00:09.224706,5,-0.00011906632,,,,
2022-02-26 14:00:09.225206,5,-0.00013518792,,,,
2022-02-26 14:00:09.225706,5,-0.00014571285,,,,
2022-02-26 14:00:09.226206,5,-0.00014028602,,,,
2022-02-26 14:00:09.226706,5,-0.000113834634,,,,
2022-02-26 14:00:09.227206,5,-8.611179e-05,,,,
2022-02-26 14:00:09.227706,5,-7.487461e-05,,,,
2022-02-26 14:00:09.228206,5,-6.529911e-05,,,,
2022-02-26 14:00:09.228706,5,-3.983869e-05,,,,
2022-02-26 14:00:09.229206,5,-4.2958777e-06,,,,
2022-02-26 14:00:09.229706,5,3.121388e-05,,,,
2022-02-26 14:00:09.230206,5,6.391489e-05,,,,
2022-02-26 14:00:09.230706,5,9.321105e-05,,,,
2022-02-26 14:00:09.231206,5,0.00011955272,,,,
2022-02-26 14:00:09.231706,5,0.00014342659,,,,
2022-02-26 14:00:09.232206,5,0.00016377073,,,,
2022-02-26 14:00:09.232706,5,0.00017854414,,,,
2022-02-26 14:00:09.233206,5,0.00018684701,,,,
2022-02-26 14:00:09.233706,5,0.00018953146,,,,
2022-02-26 14:00:09.234206,5,0.00018658962,,,,
2022-02-26 14:00:09.234706,5,0.00017829041,,,,
2022-02-26 14:00:09.235206,5,0.00016911193,,,,
2022-02-26 14:00:09.235706,5,0.00016193582,,,,
2022-02-26 14:00:09.236206,5,0.00014995706,,,,
2022-02-26 14:00:09.236706,5,0.00012588735,,,,
2022-02-26 14:00:09.237206,5,9.221235e-05,,,,
2022-02-26 14:00:09.237706,5,5.2974498e-05,,,,
2022-02-26 14:00:09.238206,5,9.429095e-06,,,,
2022-02-26 14:00:09.238706,5,-2.951614e-05,,,,
2022-02-26 14:00:09.239206,5,-4.7566373e-05,,,,
2022-02-26 14:00:09.239706,5,-3.7661946e-05,,,,
2022-02-26 14:00:09.240206,5,-7.894501e-06,,,,
2022-02-26 14:00:09.240706,5,2.9657886e-05,,,,
2022-02-26 14:00:09.241206,5,6.503851e-05,,,,
2022-02-26 14:00:09.241706,5,8.8618624e-05,,,,
2022-02-26 14:00:09.242206,5,9.791832e-05,,,,
2022-02-26 14:00:09.242706,5,0.00010228403,,,,
2022-02-26 14:00:09.243206,5,0.00011239578,,,,
2022-02-26 14:00:09.243706,5,0.0001308327,,,,
2022-02-26 14:00:09.244206,5,0.00014943778,,,,
2022-02-26 14:00:09.244706,5,0.00015559881,,,,
2022-02-26 14:00:09.245206,5,0.00014552723,,,,
2022-02-26 14:00:09.245706,5,0.00012569134,,,,
2022-02-26 14:00:09.246206,5,0.00010441522,,,,
2022-02-26 14:00:09.246706,5,8.878417e-05,,,,
2022-02-26 14:00:09.247206,5,8.3209066e-05,,,,
2022-02-26 14:00:09.247706,5,7.9891535e-05,,,,
2022-02-26 14:00:09.248206,5,6.28166e-05,,,,
2022-02-26 14:00:09.248706,5,3.292329e-05,,,,
2022-02-26 14:00:09.249206,5,8.739832e-06,,,,
2022-02-26 14:00:09.249706,5,1.9692366e-06,,,,
2022-02-26 14:00:09.250206,5,8.767883e-06,,,,
2022-02-26 14:00:09.250706,5,1.7960621e-05,,,,
2022-02-26 14:00:09.251206,5,2.3526218e-05,,,,
2022-02-26 14:00:09.251706,5,2.697989e-05,,,,
2022-02-26 14:00:09.252206,5,2.6889915e-05,,,,
2022-02-26 14:00:09.252706,5,1.866888e-05,,,,
2022-02-26 14:00:09.253206,5,4.902216e-06,,,,
2022-02-26 14:00:09.253706,5,-3.9819915e-06,,,,
2022-02-26 14:00:09.254206,5,2.3954397e-06,,,,
2022-02-26 14:00:09.254706,5,2.6030655e-05,,,,
2022-02-26 14:00:09.255206,5,5.8742888e-05,,,,
2022-02-26 14:00:09.255706,5,8.8067194e-05,,,,
2022-02-26 14:00:09.256206,5,0.00010301289,,,,
2022-02-26 14:00:09.256706,5,0.000103946106,,,,
2022-02-26 14:00:09.257206,5,0.00010178357,,,,
2022-02-26 14:00:09.257706,5,9.812564e-05,,,,
2022-02-26 14:00:09.258206,5,8.8790424e-05,,,,
2022-02-26 14:00:09.258706,5,8.4213745e-05,,,,
2022-02-26 14:00:09.259206,5,9.5668125e-05,,,,
2022-02-26 14:00:09.259706,5,0.00011542822,,,,
2022-02-26 14:00:09.260206,5,0.00012885194,,,,
2022-02-26 14:00:09.260706,5,0.00012835518,,,,
2022-02-26 14:00:09.261206,5,0.000116724994,,,,
2022-02-26 14:00:09.261706,5,0.000104823426,,,,
2022-02-26 14:00:09.262206,5,9.919807e-05,,,,
2022-02-26 14:00:09.262706,5,9.7546595e-05,,,,
2022-02-26 14:00:09.263206,5,9.616576e-05,,,,
2022-02-26 14:00:09.263706,5,9.48837e-05,,,,
2022-02-26 14:00:09.264206,5,9.747752e-05,,,,
2022-02-26 14:00:09.264706,5,0.00010737742,,,,
2022-02-26 14:00:09.265206,5,0.00012301817,,,,
2022-02-26 14:00:09.265706,5,0.00013694154,,,,
2022-02-26 14:00:09.266206,5,0.0001417891,,,,
2022-02-26 14:00:09.266706,5,0.00014226334,,,,
2022-02-26 14:00:09.267206,5,0.00014858057,,,,
2022-02-26 14:00:09.267706,5,0.00015741249,,,,
2022-02-26 14:00:09.268206,5,0.00015896054,,,,
2022-02-26 14:00:09.268706,5,0.00015269293,,,,
2022-02-26 14:00:09.269206,5,0.00014091593,,,,
2022-02-26 14:00:09.269706,5,0.00012199789,,,,
2022-02-26 14:00:09.270206,5,9.830928e-05,,,,
2022-02-26 14:00:09.270706,5,7.7431745e-05,,,,
2022-02-26 14:00:09.271206,5,6.0707203e-05,,,,
2022-02-26 14:00:09.271706,5,4.5531586e-05,,,,
2022-02-26 14:00:09.272206,5,3.8115813e-05,,,,
2022-02-26 14:00:09.272706,5,4.289739e-05,,,,
2022-02-26 14:00:09.273206,5,4.905602e-05,,,,
2022-02-26 14:00:09.273706,5,4.8550024e-05,,,,
2022-02-26 14:00:09.274206,5,4.976754e-05,,,,
2022-02-26 14:00:09.274706,5,6.316148e-05,,,,
2022-02-26 14:00:09.275206,5,8.772265e-05,,,,
2022-02-26 14:00:09.275706,5,0.000108678316,,,,
2022-02-26 14:00:09.276206,5,0.00011243852,,,,
2022-02-26 14:00:09.276706,5,0.000106999505,,,,
2022-02-26 14:00:09.277206,5,0.00010571024,,,,
2022-02-26 14:00:09.277706,5,0.00010286251,,,,
2022-02-26 14:00:09.278206,5,9.211047e-05,,,,
2022-02-26 14:00:09.278706,5,8.0651174e-05,,,,
2022-02-26 14:00:09.279206,5,6.3888685e-05,,,,
2022-02-26 14:00:09.279706,5,2.5395211e-05,,,,
2022-02-26 14:00:09.280206,5,-2.6733269e-05,,,,
2022-02-26 14:00:09.280706,5,-6.1860366e-05,,,,
2022-02-26 14:00:09.281206,5,-6.128285e-05,,,,
2022-02-26 14:00:09.281706,5,-3.1931784e-05,,,,
2022-02-26 14:00:09.282206,5,3.9972506e-06,,,,
2022-02-26 14:00:09.282706,5,3.1549236e-05,,,,
2022-02-26 14:00:09.283206,5,5.114389e-05,,,,
2022-02-26 14:00:09.283706,5,6.722649e-05,,,,
2022-02-26 14:00:09.284206,5,8.229549e-05,,,,
2022-02-26 14:00:09.284706,5,9.50816e-05,,,,
2022-02-26 14:00:09.285206,5,0.00010355175,,,,
2022-02-26 14:00:09.285706,5,0.00011257504,,,,
2022-02-26 14:00:09.286206,5,0.00012654894,,,,
2022-02-26 14:00:09.286706,5,0.00013934115,,,,
2022-02-26 14:00:09.287206,5,0.00014423628,,,,
2022-02-26 14:00:09.287706,5,0.00014253924,,,,
2022-02-26 14:00:09.288206,5,0.00013685526,,,,
2022-02-26 14:00:09.288706,5,0.0001281503,,,,
2022-02-26 14:00:09.289206,5,0.0001187616,,,,
2022-02-26 14:00:09.289706,5,0.00011018269,,,,
2022-02-26 14:00:09.290206,5,9.989581e-05,,,,
2022-02-26 14:00:09.290706,5,8.440956e-05,,,,
2022-02-26 14:00:09.291206,5,6.305632e-05,,,,
2022-02-26 14:00:09.291706,5,3.9360595e-05,,,,
2022-02-26 14:00:09.292206,5,2.1388785e-05,,,,
2022-02-26 14:00:09.292706,5,1.770659e-05,,,,
2022-02-26 14:00:09.293206,5,2.8388982e-05,,,,
2022-02-26 14:00:09.293706,5,3.8097915e-05,,,,
2022-02-26 14:00:09.294206,5,2.878282e-05,,,,
2022-02-26 14:00:09.294706,5,8.9894644e-07,,,,
2022-02-26 14:00:09.295206,5,-2.8056897e-05,,,,
2022-02-26 14:00:09.295706,5,-3.8725568e-05,,,,
2022-02-26 14:00:09.296206,5,-2.546228e-05,,,,
2022-02-26 14:00:09.296706,5,9.183664e-07,,,,
2022-02-26 14:00:09.297206,5,3.0380483e-05,,,,
2022-02-26 14:00:09.297706,5,5.7591165e-05,,,,
2022-02-26 14:00:09.298206,5,7.284711e-05,,,,
2022-02-26 14:00:09.298706,5,7.0002265e-05,,,,
2022-02-26 14:00:09.299206,5,5.5888206e-05,,,,
2022-02-26 14:00:09.299706,5,4.2409774e-05,,,,
2022-02-26 14:00:09.300206,5,3.7129314e-05,,,,
2022-02-26 14:00:09.300706,5,3.994476e-05,,,,
2022-02-26 14:00:09.301206,5,4.5189834e-05,,,,
2022-02-26 14:00:09.301706,5,5.1605697e-05,,,,
2022-02-26 14:00:09.302206,5,6.198242e-05,,,,
2022-02-26 14:00:09.302706,5,7.1357426e-05,,,,
2022-02-26 14:00:09.303206,5,7.2367766e-05,,,,
2022-02-26 14:00:09.303706,5,6.730088e-05,,,,
2022-02-26 14:00:09.304206,5,6.248245e-05,,,,
2022-02-26 14:00:09.304706,5,6.401091e-05,,,,
2022-02-26 14:00:09.305206,5,7.6065946e-05,,,,
2022-02-26 14:00:09.305706,5,9.196636e-05,,,,
2022-02-26 14:00:09.306206,5,0.00010032256,,,,
2022-02-26 14:00:09.306706,5,9.836656e-05,,,,
2022-02-26 14:00:09.307206,5,9.103935e-05,,,,
2022-02-26 14:00:09.307706,5,8.491714e-05,,,,
2022-02-26 14:00:09.308206,5,8.430006e-05,,,,
2022-02-26 14:00:09.308706,5,8.9119116e-05,,,,
2022-02-26 14:00:09.309206,5,9.6120886e-05,,,,
2022-02-26 14:00:09.309706,5,0.000102569495,,,,
2022-02-26 14:00:09.310206,5,0.000107433836,,,,
2022-02-26 14:00:09.310706,5,0.0001095815,,,,
2022-02-26 14:00:09.311206,5,0.00010796845,,,,
2022-02-26 14:00:09.311706,5,0.00010327914,,,,
2022-02-26 14:00:09.312206,5,9.826653e-05,,,,
2022-02-26 14:00:09.312706,5,9.64694e-05,,,,
2022-02-26 14:00:09.313206,5,9.795522e-05,,,,
2022-02-26 14:00:09.313706,5,9.7355696e-05,,,,
2022-02-26 14:00:09.314206,5,9.1005015e-05,,,,
2022-02-26 14:00:09.314706,5,8.163624e-05,,,,
2022-02-26 14:00:09.315206,5,7.3626354e-05,,,,
2022-02-26 14:00:09.315706,5,6.9351445e-05,,,,
2022-02-26 14:00:09.316206,5,6.830488e-05,,,,
2022-02-26 14:00:09.316706,5,6.797735e-05,,,,
2022-02-26 14:00:09.317206,5,6.867771e-05,,,,
2022-02-26 14:00:09.317706,5,7.456322e-05,,,,
2022-02-26 14:00:09.318206,5,8.624844e-05,,,,
2022-02-26 14:00:09.318706,5,9.7341355e-05,,,,
2022-02-26 14:00:09.319206,5,0.000102114616,,,,
2022-02-26 14:00:09.319706,5,0.000100214114,,,,
2022-02-26 14:00:09.320206,5,9.35579e-05,,,,
2022-02-26 14:00:09.320706,5,8.6265536e-05,,,,
2022-02-26 14:00:09.321206,5,8.274507e-05,,,,
2022-02-26 14:00:09.321706,5,8.10838e-05,,,,
2022-02-26 14:00:09.322206,5,7.802192e-05,,,,
2022-02-26 14:00:09.322706,5,7.770853e-05,,,,
2022-02-26 14:00:09.323206,5,8.293037e-05,,,,
2022-02-26 14:00:09.323706,5,8.7497276e-05,,,,
2022-02-26 14:00:09.324206,5,8.655593e-05,,,,
2022-02-26 14:00:09.324706,5,8.2386694e-05,,,,
2022-02-26 14:00:09.325206,5,7.860581e-05,,,,
2022-02-26 14:00:09.325706,5,7.703378e-05,,,,
2022-02-26 14:00:09.326206,5,7.77113e-05,,,,
2022-02-26 14:00:09.326706,5,7.975901e-05,,,,
2022-02-26 14:00:09.327206,5,8.293008e-05,,,,
2022-02-26 14:00:09.327706,5,8.586622e-05,,,,
2022-02-26 14:00:09.328206,5,8.5460844e-05,,,,
2022-02-26 14:00:09.328706,5,8.2725106e-05,,,,
2022-02-26 14:00:09.329206,5,8.307842e-05,,,,
2022-02-26 14:00:09.329706,5,8.7376844e-05,,,,
2022-02-26 14:00:09.330206,5,9.127223e-05,,,,
2022-02-26 14:00:09.330706,5,9.451347e-05,,,,
2022-02-26 14:00:09.331206,5,0.000100420955,,,,
2022-02-26 14:00:09.331706,5,0.00010398073,,,,
2022-02-26 14:00:09.332206,5,9.7622134e-05,,,,
2022-02-26 14:00:09.332706,5,8.7850756e-05,,,,
2022-02-26 14:00:09.333206,5,8.4555795e-05,,,,
2022-02-26 14:00:09.333706,5,8.5614854e-05,,,,
2022-02-26 14:00:09.334206,5,8.5204236e-05,,,,
2022-02-26 14:00:09.334706,5,8.147859e-05,,,,
2022-02-26 14:00:09.335206,5,7.392699e-05,,,,
2022-02-26 14:00:09.335706,5,6.3678235e-05,,,,
2022-02-26 14:00:09.336206,5,5.514079e-05,,,,
2022-02-26 14:00:09.336706,5,5.1746367e-05,,,,
2022-02-26 14:00:09.337206,5,5.264621e-05,,,,
2022-02-26 14:00:09.337706,5,5.4851695e-05,,,,
2022-02-26 14:00:09.338206,5,5.5005334e-05,,,,
2022-02-26 14:00:09.338706,5,5.097133e-05,,,,
2022-02-26 14:00:09.339206,5,4.4924273e-05,,,,
2022-02-26 14:00:09.339706,5,4.3387437e-05,,,,
2022-02-26 14:00:09.340206,5,4.9961975e-05,,,,
2022-02-26 14:00:09.340706,5,6.0116035e-05,,,,
2022-02-26 14:00:09.341206,5,6.524387e-05,,,,
2022-02-26 14:00:09.341706,5,5.8678852e-05,,,,
2022-02-26 14:00:09.342206,5,4.3537122e-05,,,,
2022-02-26 14:00:09.342706,5,3.3107517e-05,,,,
2022-02-26 14:00:09.343206,5,3.663004e-05,,,,
2022-02-26 14:00:09.343706,5,5.0626317e-05,,,,
2022-02-26 14:00:09.344206,5,6.402671e-05,,,,
2022-02-26 14:00:09.344706,5,6.9389935e-05,,,,
2022-02-26 14:00:09.345206,5,6.8865724e-05,,,,
2022-02-26 14:00:09.345706,5,6.8262154e-05,,,,
2022-02-26 14:00:09.346206,5,7.091418e-05,,,,
2022-02-26 14:00:09.346706,5,7.5923206e-05,,,,
2022-02-26 14:00:09.347206,5,7.932005e-05,,,,
2022-02-26 14:00:09.347706,5,7.92012e-05,,,,
2022-02-26 14:00:09.348206,5,7.701279e-05,,,,
2022-02-26 14:00:09.348706,5,7.4263044e-05,,,,
2022-02-26 14:00:09.349206,5,7.236223e-05,,,,
2022-02-26 14:00:09.349706,5,7.391005e-05,,,,
2022-02-26 14:00:09.350206,5,8.0013946e-05,,,,
2022-02-26 14:00:09.350706,5,8.8204e-05,,,,
2022-02-26 14:00:09.351206,5,9.493088e-05,,,,
2022-02-26 14:00:09.351706,5,9.71516e-05,,,,
2022-02-26 14:00:09.352206,5,9.25999e-05,,,,
2022-02-26 14:00:09.352706,5,8.25859e-05,,,,
2022-02-26 14:00:09.353206,5,7.286032e-05,,,,
2022-02-26 14:00:09.353706,5,6.6740904e-05,,,,
2022-02-26 14:00:09.354206,5,6.041142e-05,,,,
2022-02-26 14:00:09.354706,5,5.0494025e-05,,,,
2022-02-26 14:00:09.355206,5,3.9622406e-05,,,,
2022-02-26 14:00:09.355706,5,3.1497304e-05,,,,
2022-02-26 14:00:09.356206,5,2.8612374e-05,,,,
2022-02-26 14:00:09.356706,5,3.421046e-05,,,,
2022-02-26 14:00:09.357206,5,4.8730766e-05,,,,
2022-02-26 14:00:09.357706,5,6.630103e-05,,,,
2022-02-26 14:00:09.358206,5,8.1071754e-05,,,,
2022-02-26 14:00:09.358706,5,9.2727154e-05,,,,
2022-02-26 14:00:09.359206,5,0.00010066059,,,,
2022-02-26 14:00:09.359706,5,0.0001008288,,,,
2022-02-26 14:00:09.360206,5,9.428728e-05,,,,
2022-02-26 14:00:09.360706,5,8.8291024e-05,,,,
2022-02-26 14:00:09.361206,5,8.446576e-05,,,,
2022-02-26 14:00:09.361706,5,7.746425e-05,,,,
2022-02-26 14:00:09.362206,5,6.430791e-05,,,,
2022-02-26 14:00:09.362706,5,4.886848e-05,,,,
2022-02-26 14:00:09.363206,5,4.007847e-05,,,,
2022-02-26 14:00:09.363706,5,4.2055653e-05,,,,
2022-02-26 14:00:09.364206,5,4.886186e-05,,,,
2022-02-26 14:00:09.364706,5,5.321418e-05,,,,
2022-02-26 14:00:09.365206,5,5.2117397e-05,,,,
2022-02-26 14:00:09.365706,5,4.6493526e-05,,,,
2022-02-26 14:00:09.366206,5,3.928957e-05,,,,
2022-02-26 14:00:09.366706,5,3.0656072e-05,,,,
2022-02-26 14:00:09.367206,5,2.068315e-05,,,,
2022-02-26 14:00:09.367706,5,1.530668e-05,,,,
2022-02-26 14:00:09.368206,5,1.9938294e-05,,,,
2022-02-26 14:00:09.368706,5,3.294328e-05,,,,
2022-02-26 14:00:09.369206,5,4.892834e-05,,,,
2022-02-26 14:00:09.369706,5,6.263527e-05,,,,
2022-02-26 14:00:09.370206,5,7.263838e-05,,,,
2022-02-26 14:00:09.370706,5,8.095471e-05,,,,
2022-02-26 14:00:09.371206,5,8.727401e-05,,,,
2022-02-26 14:00:09.371706,5,8.981681e-05,,,,
2022-02-26 14:00:09.372206,5,8.9592126e-05,,,,
2022-02-26 14:00:09.372706,5,8.9410474e-05,,,,
2022-02-26 14:00:09.373206,5,9.145567e-05,,,,
2022-02-26 14:00:09.373706,5,9.511289e-05,,,,
2022-02-26 14:00:09.374206,5,9.7272256e-05,,,,
2022-02-26 14:00:09.374706,5,9.6461685e-05,,,,
2022-02-26 14:00:09.375206,5,9.436826e-05,,,,
2022-02-26 14:00:09.375706,5,9.361723e-05,,,,
2022-02-26 14:00:09.376206,5,9.506537e-05,,,,
2022-02-26 14:00:09.376706,5,9.689311e-05,,,,
2022-02-26 14:00:09.377206,5,9.720868e-05,,,,
2022-02-26 14:00:09.377706,5,9.5914336e-05,,,,
2022-02-26 14:00:09.378206,5,9.371504e-05,,,,
2022-02-26 14:00:09.378706,5,9.205335e-05,,,,
2022-02-26 14:00:09.379206,5,9.3535644e-05,,,,
2022-02-26 14:00:09.379706,5,9.8651704e-05,,,,
2022-02-26 14:00:09.380206,5,0.00010274288,,,,
2022-02-26 14:00:09.380706,5,0.00010284727,,,,
2022-02-26 14:00:09.381206,5,0.00010374195,,,,
2022-02-26 14:00:09.381706,5,0.00010794126,,,,
2022-02-26 14:00:09.382206,5,0.00010948801,,,,
2022-02-26 14:00:09.382706,5,0.00010533462,,,,
2022-02-26 14:00:09.383206,5,9.969882e-05,,,,
2022-02-26 14:00:09.383706,5,9.522865e-05,,,,
2022-02-26 14:00:09.384206,5,9.143661e-05,,,,
2022-02-26 14:00:09.384706,5,8.8267036e-05,,,,
2022-02-26 14:00:09.385206,5,8.5247e-05,,,,
2022-02-26 14:00:09.385706,5,8.302458e-05,,,,
2022-02-26 14:00:09.386206,5,8.229059e-05,,,,
2022-02-26 14:00:09.386706,5,7.858683e-05,,,,
2022-02-26 14:00:09.387206,5,6.9459114e-05,,,,
2022-02-26 14:00:09.387706,5,6.111122e-05,,,,
2022-02-26 14:00:09.388206,5,5.8963265e-05,,,,
2022-02-26 14:00:09.388706,5,6.119025e-05,,,,
2022-02-26 14:00:09.389206,5,6.297577e-05,,,,
2022-02-26 14:00:09.389706,5,6.128768e-05,,,,
2022-02-26 14:00:09.390206,5,5.6199427e-05,,,,
2022-02-26 14:00:09.390706,5,5.0782855e-05,,,,
2022-02-26 14:00:09.391206,5,5.013733e-05,,,,
2022-02-26 14:00:09.391706,5,5.6713452e-05,,,,
2022-02-26 14:00:09.392206,5,6.7512185e-05,,,,
2022-02-26 14:00:09.392706,5,7.731009e-05,,,,
2022-02-26 14:00:09.393206,5,8.203286e-05,,,,
2022-02-26 14:00:09.393706,5,8.0269296e-05,,,,
2022-02-26 14:00:09.394206,5,7.488143e-05,,,,
2022-02-26 14:00:09.394706,5,7.209133e-05,,,,
2022-02-26 14:00:09.395206,5,7.487292e-05,,,,
2022-02-26 14:00:09.395706,5,7.9886755e-05,,,,
2022-02-26 14:00:09.396206,5,8.271017e-05,,,,
2022-02-26 14:00:09.396706,5,8.216819e-05,,,,
2022-02-26 14:00:09.397206,5,8.188683e-05,,,,
2022-02-26 14:00:09.397706,5,8.579041e-05,,,,
2022-02-26 14:00:09.398206,5,8.41141e-05,,,,
2022-02-26 14:00:09.398706,5,5.8469675e-05,,,,
2022-02-26 14:00:09.399206,5,1.7454124e-05,,,,
2022-02-26 14:00:09.399706,5,-4.0412788e-06,,,,
2022-02-26 14:00:09.400206,5,5.85496e-06,,,,
2022-02-26 14:00:09.400706,5,2.6046477e-05,,,,
2022-02-26 14:00:09.401206,5,3.907598e-05,,,,
2022-02-26 14:00:09.401706,5,4.809349e-05,,,,
2022-02-26 14:00:09.402206,5,6.0493865e-05,,,,
2022-02-26 14:00:09.402706,5,7.3318326e-05,,,,
2022-02-26 14:00:09.403206,5,8.1061735e-05,,,,
2022-02-26 14:00:09.403706,5,8.377172e-05,,,,
2022-02-26 14:00:09.404206,5,8.3623396e-05,,,,
2022-02-26 14:00:09.404706,5,8.2760766e-05,,,,
2022-02-26 14:00:09.405206,5,8.281373e-05,,,,
2022-02-26 14:00:09.405706,5,8.33036e-05,,,,
2022-02-26 14:00:09.406206,5,8.146836e-05,,,,
2022-02-26 14:00:09.406706,5,7.62181e-05,,,,
2022-02-26 14:00:09.407206,5,7.223838e-05,,,,
2022-02-26 14:00:09.407706,5,7.39654e-05,,,,
2022-02-26 14:00:09.408206,5,7.850021e-05,,,,
2022-02-26 14:00:09.408706,5,7.915785e-05,,,,
2022-02-26 14:00:09.409206,5,7.127681e-05,,,,
2022-02-26 14:00:09.409706,5,5.7222183e-05,,,,
2022-02-26 14:00:09.410206,5,4.589144e-05,,,,
2022-02-26 14:00:09.410706,5,4.2716336e-05,,,,
2022-02-26 14:00:09.411206,5,4.5166405e-05,,,,
2022-02-26 14:00:09.411706,5,5.0340324e-05,,,,
2022-02-26 14:00:09.412206,5,5.9780552e-05,,,,
2022-02-26 14:00:09.412706,5,7.025092e-05,,,,
2022-02-26 14:00:09.413206,5,7.364847e-05,,,,
2022-02-26 14:00:09.413706,5,7.25213e-05,,,,
2022-02-26 14:00:09.414206,5,7.383399e-05,,,,
2022-02-26 14:00:09.414706,5,7.529363e-05,,,,
2022-02-26 14:00:09.415206,5,7.550535e-05,,,,
2022-02-26 14:00:09.415706,5,7.893448e-05,,,,
2022-02-26 14:00:09.416206,5,8.566056e-05,,,,
2022-02-26 14:00:09.416706,5,9.2108334e-05,,,,
2022-02-26 14:00:09.417206,5,9.842849e-05,,,,
2022-02-26 14:00:09.417706,5,0.00010544592,,,,
2022-02-26 14:00:09.418206,5,0.000110418434,,,,
2022-02-26 14:00:09.418706,5,0.000111248424,,,,
2022-02-26 14:00:09.419206,5,0.000108468244,,,,
2022-02-26 14:00:09.419706,5,0.00010139585,,,,
2022-02-26 14:00:09.420206,5,8.9779554e-05,,,,
2022-02-26 14:00:09.420706,5,7.807048e-05,,,,
2022-02-26 14:00:09.421206,5,7.253485e-05,,,,
2022-02-26 14:00:09.421706,5,7.691595e-05,,,,
2022-02-26 14:00:09.422206,5,8.815722e-05,,,,
2022-02-26 14:00:09.422706,5,9.590711e-05,,,,
2022-02-26 14:00:09.423206,5,9.363278e-05,,,,
2022-02-26 14:00:09.423706,5,8.4974614e-05,,,,
2022-02-26 14:00:09.424206,5,7.796034e-05,,,,
2022-02-26 14:00:09.424706,5,7.7493525e-05,,,,
2022-02-26 14:00:09.425206,5,8.2780534e-05,,,,
2022-02-26 14:00:09.425706,5,9.3740215e-05,,,,
2022-02-26 14:00:09.426206,5,0.000109578745,,,,
2022-02-26 14:00:09.426706,5,0.00012210938,,,,
2022-02-26 14:00:09.427206,5,0.00012379105,,,,
2022-02-26 14:00:09.427706,5,0.00010928809,,,,
2022-02-26 14:00:09.428206,5,7.355116e-05,,,,
2022-02-26 14:00:09.428706,5,2.7641765e-05,,,,
2022-02-26 14:00:09.429206,5,-3.258404e-06,,,,
2022-02-26 14:00:09.429706,5,-6.057592e-06,,,,
2022-02-26 14:00:09.430206,5,1.1097671e-05,,,,
2022-02-26 14:00:09.430706,5,3.1424504e-05,,,,
2022-02-26 14:00:09.431206,5,4.5439545e-05,,,,
2022-02-26 14:00:09.431706,5,5.373117e-05,,,,
2022-02-26 14:00:09.432206,5,5.9152735e-05,,,,
2022-02-26 14:00:09.432706,5,6.451397e-05,,,,
2022-02-26 14:00:09.433206,5,7.199738e-05,,,,
2022-02-26 14:00:09.433706,5,8.2366365e-05,,,,
2022-02-26 14:00:09.434206,5,9.731037e-05,,,,
2022-02-26 14:00:09.434706,5,0.00011519503,,,,
2022-02-26 14:00:09.435206,5,0.00012646835,,,,
2022-02-26 14:00:09.435706,5,0.00012494622,,,,
2022-02-26 14:00:09.436206,5,0.00011462282,,,,
2022-02-26 14:00:09.436706,5,9.7942844e-05,,,,
2022-02-26 14:00:09.437206,5,7.4230564e-05,,,,
2022-02-26 14:00:09.437706,5,5.0177718e-05,,,,
2022-02-26 14:00:09.438206,5,3.53833e-05,,,,
2022-02-26 14:00:09.438706,5,3.268802e-05,,,,
2022-02-26 14:00:09.439206,5,3.7362042e-05,,,,
2022-02-26 14:00:09.439706,5,3.5953475e-05,,,,
2022-02-26 14:00:09.440206,5,1.9267642e-05,,,,
2022-02-26 14:00:09.440706,5,-4.907205e-07,,,,
2022-02-26 14:00:09.441206,5,-4.5138363e-06,,,,
2022-02-26 14:00:09.441706,5,1.0740418e-05,,,,
2022-02-26 14:00:09.442206,5,3.26317e-05,,,,
2022-02-26 14:00:09.442706,5,4.628739e-05,,,,
2022-02-26 14:00:09.443206,5,5.026114e-05,,,,
2022-02-26 14:00:09.443706,5,5.2548614e-05,,,,
2022-02-26 14:00:09.444206,5,5.725053e-05,,,,
2022-02-26 14:00:09.444706,5,6.364744e-05,,,,
2022-02-26 14:00:09.445206,5,7.096936e-05,,,,
2022-02-26 14:00:09.445706,5,8.061569e-05,,,,
2022-02-26 14:00:09.446206,5,9.3315495e-05,,,,
2022-02-26 14:00:09.446706,5,0.000104212886,,,,
2022-02-26 14:00:09.447206,5,0.00010795228,,,,
2022-02-26 14:00:09.447706,5,0.00010750825,,,,
2022-02-26 14:00:09.448206,5,0.000108274144,,,,
2022-02-26 14:00:09.448706,5,0.00010905465,,,,
2022-02-26 14:00:09.449206,5,0.00010760192,,,,
2022-02-26 14:00:09.449706,5,0.00010558885,,,,
2022-02-26 14:00:09.450206,5,0.00010232523,,,,
2022-02-26 14:00:09.450706,5,9.212537e-05,,,,
2022-02-26 14:00:09.451206,5,6.998293e-05,,,,
2022-02-26 14:00:09.451706,5,3.8916267e-05,,,,
2022-02-26 14:00:09.452206,5,1.182781e-05,,,,
2022-02-26 14:00:09.452706,5,9.955985e-07,,,,
2022-02-26 14:00:09.453206,5,9.3097e-06,,,,
2022-02-26 14:00:09.453706,5,3.005657e-05,,,,
2022-02-26 14:00:09.454206,5,5.0461676e-05,,,,
2022-02-26 14:00:09.454706,5,6.458879e-05,,,,
2022-02-26 14:00:09.455206,5,7.661783e-05,,,,
2022-02-26 14:00:09.455706,5,8.832063e-05,,,,
2022-02-26 14:00:09.456206,5,9.5197334e-05,,,,
2022-02-26 14:00:09.456706,5,9.075948e-05,,,,
2022-02-26 14:00:09.457206,5,7.621175e-05,,,,
2022-02-26 14:00:09.457706,5,6.601425e-05,,,,
2022-02-26 14:00:09.458206,5,6.8968744e-05,,,,
2022-02-26 14:00:09.458706,5,7.6477554e-05,,,,
2022-02-26 14:00:09.459206,5,7.9950034e-05,,,,
2022-02-26 14:00:09.459706,5,7.990794e-05,,,,
2022-02-26 14:00:09.460206,5,7.9457925e-05,,,,
2022-02-26 14:00:09.460706,5,8.109628e-05,,,,
2022-02-26 14:00:09.461206,5,8.4992455e-05,,,,
2022-02-26 14:00:09.461706,5,8.889479e-05,,,,
2022-02-26 14:00:09.462206,5,9.095563e-05,,,,
2022-02-26 14:00:09.462706,5,9.177723e-05,,,,
2022-02-26 14:00:09.463206,5,9.395315e-05,,,,
2022-02-26 14:00:09.463706,5,9.919293e-05,,,,
2022-02-26 14:00:09.464206,5,0.0001056332,,,,
2022-02-26 14:00:09.464706,5,0.000107291504,,,,
2022-02-26 14:00:09.465206,5,9.8814104e-05,,,,
2022-02-26 14:00:09.465706,5,8.153816e-05,,,,
2022-02-26 14:00:09.466206,5,6.4564105e-05,,,,
2022-02-26 14:00:09.466706,5,6.088744e-05,,,,
2022-02-26 14:00:09.467206,5,7.333022e-05,,,,
2022-02-26 14:00:09.467706,5,8.8784094e-05,,,,
2022-02-26 14:00:09.468206,5,9.588214e-05,,,,
2022-02-26 14:00:09.468706,5,9.425527e-05,,,,
2022-02-26 14:00:09.469206,5,8.8165165e-05,,,,
2022-02-26 14:00:09.469706,5,8.218129e-05,,,,
2022-02-26 14:00:09.470206,5,7.704563e-05,,,,
2022-02-26 14:00:09.470706,5,7.207857e-05,,,,
2022-02-26 14:00:09.471206,5,7.145733e-05,,,,
2022-02-26 14:00:09.471706,5,7.759267e-05,,,,
2022-02-26 14:00:09.472206,5,8.505773e-05,,,,
2022-02-26 14:00:09.472706,5,8.890824e-05,,,,
2022-02-26 14:00:09.473206,5,8.958666e-05,,,,
2022-02-26 14:00:09.473706,5,8.9051115e-05,,,,
2022-02-26 14:00:09.474206,5,8.889667e-05,,,,
2022-02-26 14:00:09.474706,5,8.986197e-05,,,,
2022-02-26 14:00:09.475206,5,9.1415146e-05,,,,
2022-02-26 14:00:09.475706,5,9.26971e-05,,,,
2022-02-26 14:00:09.476206,5,9.3100185e-05,,,,
2022-02-26 14:00:09.476706,5,9.2169605e-05,,,,
2022-02-26 14:00:09.477206,5,9.010244e-05,,,,
2022-02-26 14:00:09.477706,5,8.8165936e-05,,,,
2022-02-26 14:00:09.478206,5,8.7817316e-05,,,,
2022-02-26 14:00:09.478706,5,8.9175766e-05,,,,
2022-02-26 14:00:09.479206,5,8.906243e-05,,,,
2022-02-26 14:00:09.479706,5,8.380252e-05,,,,
2022-02-26 14:00:09.480206,5,7.739138e-05,,,,
2022-02-26 14:00:09.480706,5,7.6019285e-05,,,,
2022-02-26 14:00:09.481206,5,7.532193e-05,,,,
2022-02-26 14:00:09.481706,5,6.9181355e-05,,,,
2022-02-26 14:00:09.482206,5,6.1420425e-05,,,,
2022-02-26 14:00:09.482706,5,5.798444e-05,,,,
2022-02-26 14:00:09.483206,5,6.026189e-05,,,,
2022-02-26 14:00:09.483706,5,6.81209e-05,,,,
2022-02-26 14:00:09.484206,5,7.9319434e-05,,,,
2022-02-26 14:00:09.484706,5,8.774326e-05,,,,
2022-02-26 14:00:09.485206,5,9.096365e-05,,,,
2022-02-26 14:00:09.485706,5,9.354901e-05,,,,
2022-02-26 14:00:09.486206,5,9.6407384e-05,,,,
2022-02-26 14:00:09.486706,5,9.46382e-05,,,,
2022-02-26 14:00:09.487206,5,8.784894e-05,,,,
2022-02-26 14:00:09.487706,5,8.07489e-05,,,,
2022-02-26 14:00:09.488206,5,7.591648e-05,,,,
2022-02-26 14:00:09.488706,5,7.336435e-05,,,,
2022-02-26 14:00:09.489206,5,7.327451e-05,,,,
2022-02-26 14:00:09.489706,5,7.3636096e-05,,,,
2022-02-26 14:00:09.490206,5,6.899286e-05,,,,
2022-02-26 14:00:09.490706,5,5.6893867e-05,,,,
2022-02-26 14:00:09.491206,5,4.2216157e-05,,,,
2022-02-26 14:00:09.491706,5,3.346336e-05,,,,
2022-02-26 14:00:09.492206,5,3.4513218e-05,,,,
2022-02-26 14:00:09.492706,5,3.9479186e-05,,,,
2022-02-26 14:00:09.493206,5,4.18802e-05,,,,
2022-02-26 14:00:09.493706,5,4.32831e-05,,,,
2022-02-26 14:00:09.494206,5,4.654757e-05,,,,
2022-02-26 14:00:09.494706,5,5.0725106e-05,,,,
2022-02-26 14:00:09.495206,5,5.212811e-05,,,,
2022-02-26 14:00:09.495706,5,4.66745e-05,,,,
2022-02-26 14:00:09.496206,5,3.6396727e-05,,,,
2022-02-26 14:00:09.496706,5,2.9419076e-05,,,,
2022-02-26 14:00:09.497206,5,3.1381944e-05,,,,
2022-02-26 14:00:09.497706,5,3.9949173e-05,,,,
2022-02-26 14:00:09.498206,5,4.690483e-05,,,,
2022-02-26 14:00:09.498706,5,4.796356e-05,,,,
2022-02-26 14:00:09.499206,5,4.708517e-05,,,,
2022-02-26 14:00:09.499706,5,4.9255446e-05,,,,
2022-02-26 14:00:09.500206,5,5.5565928e-05,,,,
2022-02-26 14:00:09.500706,5,6.285802e-05,,,,
2022-02-26 14:00:09.501206,5,6.714372e-05,,,,
2022-02-26 14:00:09.501706,5,6.9651396e-05,,,,
2022-02-26 14:00:09.502206,5,7.405184e-05,,,,
2022-02-26 14:00:09.502706,5,8.015101e-05,,,,
2022-02-26 14:00:09.503206,5,8.573568e-05,,,,
2022-02-26 14:00:09.503706,5,8.958557e-05,,,,
2022-02-26 14:00:09.504206,5,9.0469046e-05,,,,
2022-02-26 14:00:09.504706,5,8.777219e-05,,,,
2022-02-26 14:00:09.505206,5,8.409149e-05,,,,
2022-02-26 14:00:09.505706,5,8.2912185e-05,,,,
2022-02-26 14:00:09.506206,5,8.4426734e-05,,,,
2022-02-26 14:00:09.506706,5,8.725275e-05,,,,
2022-02-26 14:00:09.507206,5,8.9647285e-05,,,,
2022-02-26 14:00:09.507706,5,8.954015e-05,,,,
2022-02-26 14:00:09.508206,5,8.785995e-05,,,,
2022-02-26 14:00:09.508706,5,8.672608e-05,,,,
2022-02-26 14:00:09.509206,5,8.593007e-05,,,,
2022-02-26 14:00:09.509706,5,8.6047505e-05,,,,
2022-02-26 14:00:09.510206,5,8.82073e-05,,,,
2022-02-26 14:00:09.510706,5,8.960806e-05,,,,
2022-02-26 14:00:09.511206,5,8.7206885e-05,,,,
2022-02-26 14:00:09.511706,5,8.3342646e-05,,,,
2022-02-26 14:00:09.512206,5,8.290434e-05,,,,
2022-02-26 14:00:09.512706,5,8.8783396e-05,,,,
2022-02-26 14:00:09.513206,5,9.8944474e-05,,,,
2022-02-26 14:00:09.513706,5,0.00010793246,,,,
2022-02-26 14:00:09.514206,5,0.00011460184,,,,
2022-02-26 14:00:09.514706,5,0.00012128916,,,,
2022-02-26 14:00:09.515206,5,0.00012585637,,,,
2022-02-26 14:00:09.515706,5,0.00012556813,,,,
2022-02-26 14:00:09.516206,5,0.00012353713,,,,
2022-02-26 14:00:09.516706,5,0.00012213051,,,,
2022-02-26 14:00:09.517206,5,0.00011743024,,,,
2022-02-26 14:00:09.517706,5,0.00010426228,,,,
2022-02-26 14:00:09.518206,5,8.1713086e-05,,,,
2022-02-26 14:00:09.518706,5,5.4845335e-05,,,,
2022-02-26 14:00:09.519206,5,3.2583426e-05,,,,
2022-02-26 14:00:09.519706,5,1.8308803e-05,,,,
2022-02-26 14:00:09.520206,5,5.3880262e-06,,,,
2022-02-26 14:00:09.520706,5,-5.4169936e-06,,,,
2022-02-26 14:00:09.521206,5,-1.4340392e-06,,,,
2022-02-26 14:00:09.521706,5,1.617602e-05,,,,
2022-02-26 14:00:09.522206,5,3.1474243e-05,,,,
2022-02-26 14:00:09.522706,5,3.7551046e-05,,,,
2022-02-26 14:00:09.523206,5,3.973328e-05,,,,
2022-02-26 14:00:09.523706,5,4.3917255e-05,,,,
2022-02-26 14:00:09.524206,5,5.091665e-05,,,,
2022-02-26 14:00:09.524706,5,5.8903446e-05,,,,
2022-02-26 14:00:09.525206,5,6.6021945e-05,,,,
2022-02-26 14:00:09.525706,5,6.996111e-05,,,,
2022-02-26 14:00:09.526206,5,6.889333e-05,,,,
2022-02-26 14:00:09.526706,5,6.519027e-05,,,,
2022-02-26 14:00:09.527206,5,6.420642e-05,,,,
2022-02-26 14:00:09.527706,5,6.6425215e-05,,,,
2022-02-26 14:00:09.528206,5,6.6898676e-05,,,,
2022-02-26 14:00:09.528706,5,6.224117e-05,,,,
2022-02-26 14:00:09.529206,5,5.5353437e-05,,,,
2022-02-26 14:00:09.529706,5,5.4474283e-05,,,,
2022-02-26 14:00:09.530206,5,6.1868755e-05,,,,
2022-02-26 14:00:09.530706,5,6.91483e-05,,,,
2022-02-26 14:00:09.531206,5,7.163732e-05,,,,
2022-02-26 14:00:09.531706,5,7.377488e-05,,,,
2022-02-26 14:00:09.532206,5,7.9142046e-05,,,,
2022-02-26 14:00:09.532706,5,8.635253e-05,,,,
2022-02-26 14:00:09.533206,5,9.149609e-05,,,,
2022-02-26 14:00:09.533706,5,9.259493e-05,,,,
2022-02-26 14:00:09.534206,5,9.1523194e-05,,,,
2022-02-26 14:00:09.534706,5,9.040478e-05,,,,
2022-02-26 14:00:09.535206,5,9.0485904e-05,,,,
2022-02-26 14:00:09.535706,5,9.259197e-05,,,,
2022-02-26 14:00:09.536206,5,9.620088e-05,,,,
2022-02-26 14:00:09.536706,5,0.000100940895,,,,
2022-02-26 14:00:09.537206,5,0.00010643271,,,,
2022-02-26 14:00:09.537706,5,0.00010999147,,,,
2022-02-26 14:00:09.538206,5,0.00011108019,,,,
2022-02-26 14:00:09.538706,5,0.00011533975,,,,
2022-02-26 14:00:09.539206,5,0.00012489146,,,,
2022-02-26 14:00:09.539706,5,0.00013180173,,,,
2022-02-26 14:00:09.540206,5,0.00012793975,,,,
2022-02-26 14:00:09.540706,5,0.000112962596,,,,
2022-02-26 14:00:09.541206,5,9.3605e-05,,,,
2022-02-26 14:00:09.541706,5,7.931203e-05,,,,
2022-02-26 14:00:09.542206,5,7.525859e-05,,,,
2022-02-26 14:00:09.542706,5,7.676872e-05,,,,
2022-02-26 14:00:09.543206,5,7.204578e-05,,,,
2022-02-26 14:00:09.543706,5,5.934545e-05,,,,
2022-02-26 14:00:09.544206,5,5.1842224e-05,,,,
2022-02-26 14:00:09.544706,5,5.3420696e-05,,,,
2022-02-26 14:00:09.545206,5,5.3451633e-05,,,,
2022-02-26 14:00:09.545706,5,4.993474e-05,,,,
2022-02-26 14:00:09.546206,5,4.9754857e-05,,,,
2022-02-26 14:00:09.546706,5,5.5805875e-05,,,,
2022-02-26 14:00:09.547206,5,6.955985e-05,,,,
2022-02-26 14:00:09.547706,5,8.47015e-05,,,,
2022-02-26 14:00:09.548206,5,8.768675e-05,,,,
2022-02-26 14:00:09.548706,5,8.029196e-05,,,,
2022-02-26 14:00:09.549206,5,7.37874e-05,,,,
2022-02-26 14:00:09.549706,5,6.754339e-05,,,,
2022-02-26 14:00:09.550206,5,5.641389e-05,,,,
2022-02-26 14:00:09.550706,5,4.3643e-05,,,,
2022-02-26 14:00:09.551206,5,3.7870515e-05,,,,
2022-02-26 14:00:09.551706,5,4.2347438e-05,,,,
2022-02-26 14:00:09.552206,5,5.0971637e-05,,,,
2022-02-26 14:00:09.552706,5,5.5424214e-05,,,,
2022-02-26 14:00:09.553206,5,5.092281e-05,,,,
2022-02-26 14:00:09.553706,5,4.0136398e-05,,,,
2022-02-26 14:00:09.554206,5,3.198159e-05,,,,
2022-02-26 14:00:09.554706,5,3.0116176e-05,,,,
2022-02-26 14:00:09.555206,5,3.1370015e-05,,,,
2022-02-26 14:00:09.555706,5,3.5318637e-05,,,,
2022-02-26 14:00:09.556206,5,4.3902128e-05,,,,
2022-02-26 14:00:09.556706,5,5.6278055e-05,,,,
2022-02-26 14:00:09.557206,5,6.921541e-05,,,,
2022-02-26 14:00:09.557706,5,7.884707e-05,,,,
2022-02-26 14:00:09.558206,5,8.3315295e-05,,,,
2022-02-26 14:00:09.558706,5,8.37029e-05,,,,
2022-02-26 14:00:09.559206,5,8.1100494e-05,,,,
2022-02-26 14:00:09.559706,5,7.6690034e-05,,,,
2022-02-26 14:00:09.560206,5,7.298615e-05,,,,
2022-02-26 14:00:09.560706,5,7.04141e-05,,,,
2022-02-26 14:00:09.561206,5,6.733723e-05,,,,
2022-02-26 14:00:09.561706,5,6.5329405e-05,,,,
2022-02-26 14:00:09.562206,5,6.752789e-05,,,,
2022-02-26 14:00:09.562706,5,7.247472e-05,,,,
2022-02-26 14:00:09.563206,5,7.6440236e-05,,,,
2022-02-26 14:00:09.563706,5,7.995833e-05,,,,
2022-02-26 14:00:09.564206,5,8.528519e-05,,,,
2022-02-26 14:00:09.564706,5,9.039824e-05,,,,
2022-02-26 14:00:09.565206,5,9.323902e-05,,,,
2022-02-26 14:00:09.565706,5,9.708953e-05,,,,
2022-02-26 14:00:09.566206,5,0.00010497041,,,,
2022-02-26 14:00:09.566706,5,0.00011532562,,,,
2022-02-26 14:00:09.567206,5,0.00012626631,,,,
2022-02-26 14:00:09.567706,5,0.000136637,,,,
2022-02-26 14:00:09.568206,5,0.00014315042,,,,
2022-02-26 14:00:09.568706,5,0.00014272022,,,,
2022-02-26 14:00:09.569206,5,0.00013623507,,,,
2022-02-26 14:00:09.569706,5,0.00012643414,,,,
2022-02-26 14:00:09.570206,5,0.000114396804,,,,
2022-02-26 14:00:09.570706,5,0.000100615194,,,,
2022-02-26 14:00:09.571206,5,8.6653374e-05,,,,
2022-02-26 14:00:09.571706,5,7.3250325e-05,,,,
2022-02-26 14:00:09.572206,5,6.0804497e-05,,,,
2022-02-26 14:00:09.572706,5,5.3101507e-05,,,,
2022-02-26 14:00:09.573206,5,5.314426e-05,,,,
2022-02-26 14:00:09.573706,5,5.6639314e-05,,,,
2022-02-26 14:00:09.574206,5,5.6850186e-05,,,,
2022-02-26 14:00:09.574706,5,5.063934e-05,,,,
2022-02-26 14:00:09.575206,5,4.1055762e-05,,,,
2022-02-26 14:00:09.575706,5,3.6100893e-05,,,,
2022-02-26 14:00:09.576206,5,3.4219054e-05,,,,
2022-02-26 14:00:09.576706,5,2.3524615e-05,,,,
2022-02-26 14:00:09.577206,5,4.6231053e-06,,,,
2022-02-26 14:00:09.577706,5,-8.266673e-06,,,,
2022-02-26 14:00:09.578206,5,-7.100476e-06,,,,
2022-02-26 14:00:09.578706,5,3.0961533e-06,,,,
2022-02-26 14:00:09.579206,5,1.0480747e-05,,,,
2022-02-26 14:00:09.579706,5,1.0029047e-05,,,,
2022-02-26 14:00:09.580206,5,8.55834e-06,,,,
2022-02-26 14:00:09.580706,5,1.2718622e-05,,,,
2022-02-26 14:00:09.581206,5,2.2411901e-05,,,,
2022-02-26 14:00:09.581706,5,3.376577e-05,,,,
2022-02-26 14:00:09.582206,5,4.3664608e-05,,,,
2022-02-26 14:00:09.582706,5,5.481167e-05,,,,
2022-02-26 14:00:09.583206,5,7.005553e-05,,,,
2022-02-26 14:00:09.583706,5,8.419779e-05,,,,
2022-02-26 14:00:09.584206,5,9.159303e-05,,,,
2022-02-26 14:00:09.584706,5,9.345153e-05,,,,
2022-02-26 14:00:09.585206,5,9.304187e-05,,,,
2022-02-26 14:00:09.585706,5,9.308789e-05,,,,
2022-02-26 14:00:09.586206,5,9.680888e-05,,,,
2022-02-26 14:00:09.586706,5,0.000104365994,,,,
2022-02-26 14:00:09.587206,5,0.00011266293,,,,
2022-02-26 14:00:09.587706,5,0.00012100786,,,,
2022-02-26 14:00:09.588206,5,0.00012590903,,,,
2022-02-26 14:00:09.588706,5,0.00012034856,,,,
2022-02-26 14:00:09.589206,5,0.00010861196,,,,
2022-02-26 14:00:09.589706,5,0.000100945734,,,,
2022-02-26 14:00:09.590206,5,9.820918e-05,,,,
2022-02-26 14:00:09.590706,5,9.758575e-05,,,,
2022-02-26 14:00:09.591206,5,9.875185e-05,,,,
2022-02-26 14:00:09.591706,5,9.994175e-05,,,,
2022-02-26 14:00:09.592206,5,9.914958e-05,,,,
2022-02-26 14:00:09.592706,5,9.77455e-05,,,,
2022-02-26 14:00:09.593206,5,9.633769e-05,,,,
2022-02-26 14:00:09.593706,5,9.250339e-05,,,,
2022-02-26 14:00:09.594206,5,8.8201276e-05,,,,
2022-02-26 14:00:09.594706,5,8.943283e-05,,,,
2022-02-26 14:00:09.595206,5,9.4631854e-05,,,,
2022-02-26 14:00:09.595706,5,9.648962e-05,,,,
2022-02-26 14:00:09.596206,5,9.416089e-05,,,,
2022-02-26 14:00:09.596706,5,9.242308e-05,,,,
2022-02-26 14:00:09.597206,5,9.434178e-05,,,,
2022-02-26 14:00:09.597706,5,9.940394e-05,,,,
2022-02-26 14:00:09.598206,5,0.00010484489,,,,
2022-02-26 14:00:09.598706,5,0.0001086386,,,,
2022-02-26 14:00:09.599206,5,0.00011060802,,,,
2022-02-26 14:00:09.599706,5,0.00011119564,,,,
2022-02-26 14:00:09.600206,5,0.00011113777,,,,
2022-02-26 14:00:09.600706,5,0.00011152279,,,,
2022-02-26 14:00:09.601206,5,0.000112100264,,,,
2022-02-26 14:00:09.601706,5,0.000109024695,,,,
2022-02-26 14:00:09.602206,5,9.929257e-05,,,,
2022-02-26 14:00:09.602706,5,8.533204e-05,,,,
2022-02-26 14:00:09.603206,5,6.833428e-05,,,,
2022-02-26 14:00:09.603706,5,4.7073816e-05,,,,
2022-02-26 14:00:09.604206,5,2.7734399e-05,,,,
2022-02-26 14:00:09.604706,5,1.9763465e-05,,,,
2022-02-26 14:00:09.605206,5,2.2835438e-05,,,,
2022-02-26 14:00:09.605706,5,2.9383616e-05,,,,
2022-02-26 14:00:09.606206,5,3.4156532e-05,,,,
2022-02-26 14:00:09.606706,5,3.6777976e-05,,,,
2022-02-26 14:00:09.607206,5,4.0278926e-05,,,,
2022-02-26 14:00:09.607706,5,4.9006634e-05,,,,
2022-02-26 14:00:09.608206,5,6.4386106e-05,,,,
2022-02-26 14:00:09.608706,5,7.944495e-05,,,,
2022-02-26 14:00:09.609206,5,8.342273e-05,,,,
2022-02-26 14:00:09.609706,5,7.310183e-05,,,,
2022-02-26 14:00:09.610206,5,5.674361e-05,,,,
2022-02-26 14:00:09.610706,5,4.8939197e-05,,,,
2022-02-26 14:00:09.611206,5,5.5158333e-05,,,,
2022-02-26 14:00:09.611706,5,6.6192486e-05,,,,
2022-02-26 14:00:09.612206,5,7.4437645e-05,,,,
2022-02-26 14:00:09.612706,5,8.053984e-05,,,,
2022-02-26 14:00:09.613206,5,8.5968284e-05,,,,
2022-02-26 14:00:09.613706,5,9.081852e-05,,,,
2022-02-26 14:00:09.614206,5,9.2813374e-05,,,,
2022-02-26 14:00:09.614706,5,8.682099e-05,,,,
2022-02-26 14:00:09.615206,5,7.084508e-05,,,,
2022-02-26 14:00:09.615706,5,5.1949468e-05,,,,
2022-02-26 14:00:09.616206,5,4.0872907e-05,,,,
2022-02-26 14:00:09.616706,5,4.083287e-05,,,,
2022-02-26 14:00:09.617206,5,4.781388e-05,,,,
2022-02-26 14:00:09.617706,5,5.7586516e-05,,,,
2022-02-26 14:00:09.618206,5,6.6597444e-05,,,,
2022-02-26 14:00:09.618706,5,7.218739e-05,,,,
2022-02-26 14:00:09.619206,5,7.396797e-05,,,,
2022-02-26 14:00:09.619706,5,7.230713e-05,,,,
2022-02-26 14:00:09.620206,5,6.913448e-05,,,,
2022-02-26 14:00:09.620706,5,6.880418e-05,,,,
2022-02-26 14:00:09.621206,5,7.1921524e-05,,,,
2022-02-26 14:00:09.621706,5,7.3767085e-05,,,,
2022-02-26 14:00:09.622206,5,7.219506e-05,,,,
2022-02-26 14:00:09.622706,5,6.97597e-05,,,,
2022-02-26 14:00:09.623206,5,6.9132766e-05,,,,
2022-02-26 14:00:09.623706,5,7.141255e-05,,,,
2022-02-26 14:00:09.624206,5,7.685362e-05,,,,
2022-02-26 14:00:09.624706,5,8.420175e-05,,,,
2022-02-26 14:00:09.625206,5,9.0455425e-05,,,,
2022-02-26 14:00:09.625706,5,9.3920265e-05,,,,
2022-02-26 14:00:09.626206,5,9.5073876e-05,,,,
2022-02-26 14:00:09.626706,5,9.361163e-05,,,,
2022-02-26 14:00:09.627206,5,8.960462e-05,,,,
2022-02-26 14:00:09.627706,5,8.72112e-05,,,,
2022-02-26 14:00:09.628206,5,9.1593276e-05,,,,
2022-02-26 14:00:09.628706,5,0.000101962134,,,,
2022-02-26 14:00:09.629206,5,0.000112470814,,,,
2022-02-26 14:00:09.629706,5,0.000119719676,,,,
2022-02-26 14:00:09.630206,5,0.00012493321,,,,
2022-02-26 14:00:09.630706,5,0.00012967363,,,,
2022-02-26 14:00:09.631206,5,0.00013374715,,,,
2022-02-26 14:00:09.631706,5,0.00013671543,,,,
2022-02-26 14:00:09.632206,5,0.00013832634,,,,
2022-02-26 14:00:09.632706,5,0.00013875005,,,,
2022-02-26 14:00:09.633206,5,0.00013922734,,,,
2022-02-26 14:00:09.633706,5,0.00013931027,,,,
2022-02-26 14:00:09.634206,5,0.00013419696,,,,
2022-02-26 14:00:09.634706,5,0.00011722475,,,,
2022-02-26 14:00:09.635206,5,8.503361e-05,,,,
2022-02-26 14:00:09.635706,5,4.170715e-05,,,,
2022-02-26 14:00:09.636206,5,-3.5393834e-06,,,,
2022-02-26 14:00:09.636706,5,-4.4249704e-05,,,,
2022-02-26 14:00:09.637206,5,-7.548367e-05,,,,
2022-02-26 14:00:09.637706,5,-8.735853e-05,,,,
2022-02-26 14:00:09.638206,5,-7.617954e-05,,,,
2022-02-26 14:00:09.638706,5,-5.3265223e-05,,,,
2022-02-26 14:00:09.639206,5,-2.9624758e-05,,,,
2022-02-26 14:00:09.639706,5,-7.796719e-06,,,,
2022-02-26 14:00:09.640206,5,1.2310937e-05,,,,
2022-02-26 14:00:09.640706,5,2.9915816e-05,,,,
2022-02-26 14:00:09.641206,5,4.259326e-05,,,,
2022-02-26 14:00:09.641706,5,5.116747e-05,,,,
2022-02-26 14:00:09.642206,5,5.6563582e-05,,,,
2022-02-26 14:00:09.642706,5,5.6679135e-05,,,,
2022-02-26 14:00:09.643206,5,5.7579982e-05,,,,
2022-02-26 14:00:09.643706,5,6.599639e-05,,,,
2022-02-26 14:00:09.644206,5,7.5194155e-05,,,,
2022-02-26 14:00:09.644706,5,7.788626e-05,,,,
2022-02-26 14:00:09.645206,5,7.686341e-05,,,,
2022-02-26 14:00:09.645706,5,7.77267e-05,,,,
2022-02-26 14:00:09.646206,5,8.232269e-05,,,,
2022-02-26 14:00:09.646706,5,8.889274e-05,,,,
2022-02-26 14:00:09.647206,5,9.50713e-05,,,,
2022-02-26 14:00:09.647706,5,9.920121e-05,,,,
2022-02-26 14:00:09.648206,5,0.00010057111,,,,
2022-02-26 14:00:09.648706,5,9.965974e-05,,,,
2022-02-26 14:00:09.649206,5,9.7037555e-05,,,,
2022-02-26 14:00:09.649706,5,9.269066e-05,,,,
2022-02-26 14:00:09.650206,5,8.634407e-05,,,,
2022-02-26 14:00:09.650706,5,7.9934456e-05,,,,
2022-02-26 14:00:09.651206,5,7.88412e-05,,,,
2022-02-26 14:00:09.651706,5,8.323648e-05,,,,
2022-02-26 14:00:09.652206,5,8.4592866e-05,,,,
2022-02-26 14:00:09.652706,5,7.9954116e-05,,,,
2022-02-26 14:00:09.653206,5,7.617298e-05,,,,
2022-02-26 14:00:09.653706,5,7.687691e-05,,,,
2022-02-26 14:00:09.654206,5,7.9328034e-05,,,,
2022-02-26 14:00:09.654706,5,8.2083425e-05,,,,
2022-02-26 14:00:09.655206,5,8.693071e-05,,,,
2022-02-26 14:00:09.655706,5,9.281987e-05,,,,
2022-02-26 14:00:09.656206,5,9.549882e-05,,,,
2022-02-26 14:00:09.656706,5,9.512775e-05,,,,
2022-02-26 14:00:09.657206,5,9.3760806e-05,,,,
2022-02-26 14:00:09.657706,5,9.015595e-05,,,,
2022-02-26 14:00:09.658206,5,8.6327214e-05,,,,
2022-02-26 14:00:09.658706,5,8.7609704e-05,,,,
2022-02-26 14:00:09.659206,5,9.34839e-05,,,,
2022-02-26 14:00:09.659706,5,9.83434e-05,,,,
2022-02-26 14:00:09.660206,5,9.818553e-05,,,,
2022-02-26 14:00:09.660706,5,9.310373e-05,,,,
2022-02-26 14:00:09.661206,5,8.5821004e-05,,,,
2022-02-26 14:00:09.661706,5,7.748948e-05,,,,
2022-02-26 14:00:09.662206,5,6.756462e-05,,,,
2022-02-26 14:00:09.662706,5,5.7458095e-05,,,,
2022-02-26 14:00:09.663206,5,5.0138555e-05,,,,
2022-02-26 14:00:09.663706,5,4.7615835e-05,,,,
2022-02-26 14:00:09.664206,5,4.9967282e-05,,,,
2022-02-26 14:00:09.664706,5,5.580215e-05,,,,
2022-02-26 14:00:09.665206,5,6.339231e-05,,,,
2022-02-26 14:00:09.665706,5,7.0848626e-05,,,,
2022-02-26 14:00:09.666206,5,7.627353e-05,,,,
2022-02-26 14:00:09.666706,5,7.909826e-05,,,,
2022-02-26 14:00:09.667206,5,8.133239e-05,,,,
2022-02-26 14:00:09.667706,5,8.5014064e-05,,,,
2022-02-26 14:00:09.668206,5,8.882393e-05,,,,
2022-02-26 14:00:09.668706,5,9.2145005e-05,,,,
2022-02-26 14:00:09.669206,5,9.756716e-05,,,,
2022-02-26 14:00:09.669706,5,0.00010490067,,,,
2022-02-26 14:00:09.670206,5,0.000110820176,,,,
2022-02-26 14:00:09.670706,5,0.0001141382,,,,
2022-02-26 14:00:09.671206,5,0.000115566916,,,,
2022-02-26 14:00:09.671706,5,0.00011628398,,,,
2022-02-26 14:00:09.672206,5,0.00011662975,,,,
2022-02-26 14:00:09.672706,5,0.000113272305,,,,
2022-02-26 14:00:09.673206,5,0.00010380174,,,,
2022-02-26 14:00:09.673706,5,9.1684626e-05,,,,
2022-02-26 14:00:09.674206,5,7.700516e-05,,,,
2022-02-26 14:00:09.674706,5,5.3163276e-05,,,,
2022-02-26 14:00:09.675206,5,2.4022202e-05,,,,
2022-02-26 14:00:09.675706,5,7.1045865e-06,,,,
2022-02-26 14:00:09.676206,5,1.237202e-05,,,,
2022-02-26 14:00:09.676706,5,3.0888816e-05,,,,
2022-02-26 14:00:09.677206,5,4.329167e-05,,,,
2022-02-26 14:00:09.677706,5,3.903746e-05,,,,
2022-02-26 14:00:09.678206,5,2.6298465e-05,,,,
2022-02-26 14:00:09.678706,5,1.8722694e-05,,,,
2022-02-26 14:00:09.679206,5,2.298297e-05,,,,
2022-02-26 14:00:09.679706,5,3.5488578e-05,,,,
2022-02-26 14:00:09.680206,5,4.5632292e-05,,,,
2022-02-26 14:00:09.680706,5,4.9301063e-05,,,,
2022-02-26 14:00:09.681206,5,5.0881274e-05,,,,
2022-02-26 14:00:09.681706,5,5.3548327e-05,,,,
2022-02-26 14:00:09.682206,5,5.842448e-05,,,,
2022-02-26 14:00:09.682706,5,6.422117e-05,,,,
2022-02-26 14:00:09.683206,5,6.763046e-05,,,,
2022-02-26 14:00:09.683706,5,6.9751404e-05,,,,
2022-02-26 14:00:09.684206,5,7.158611e-05,,,,
2022-02-26 14:00:09.684706,5,6.924722e-05,,,,
2022-02-26 14:00:09.685206,5,6.443745e-05,,,,
2022-02-26 14:00:09.685706,5,6.44505e-05,,,,
2022-02-26 14:00:09.686206,5,6.924217e-05,,,,
2022-02-26 14:00:09.686706,5,7.306323e-05,,,,
2022-02-26 14:00:09.687206,5,7.3919065e-05,,,,
2022-02-26 14:00:09.687706,5,7.430314e-05,,,,
2022-02-26 14:00:09.688206,5,7.730415e-05,,,,
2022-02-26 14:00:09.688706,5,8.208653e-05,,,,
2022-02-26 14:00:09.689206,5,8.4677224e-05,,,,
2022-02-26 14:00:09.689706,5,8.467085e-05,,,,
2022-02-26 14:00:09.690206,5,8.5052365e-05,,,,
2022-02-26 14:00:09.690706,5,8.653878e-05,,,,
2022-02-26 14:00:09.691206,5,8.766388e-05,,,,
2022-02-26 14:00:09.691706,5,8.7540946e-05,,,,
2022-02-26 14:00:09.692206,5,8.612243e-05,,,,
2022-02-26 14:00:09.692706,5,8.366654e-05,,,,
2022-02-26 14:00:09.693206,5,8.0449805e-05,,,,
2022-02-26 14:00:09.693706,5,7.735918e-05,,,,
2022-02-26 14:00:09.694206,5,7.662645e-05,,,,
2022-02-26 14:00:09.694706,5,7.923507e-05,,,,
2022-02-26 14:00:09.695206,5,8.243047e-05,,,,
2022-02-26 14:00:09.695706,5,8.341685e-05,,,,
2022-02-26 14:00:09.696206,5,8.204441e-05,,,,
2022-02-26 14:00:09.696706,5,7.878969e-05,,,,
2022-02-26 14:00:09.697206,5,7.487745e-05,,,,
2022-02-26 14:00:09.697706,5,7.2319664e-05,,,,
2022-02-26 14:00:09.698206,5,7.188351e-05,,,,
2022-02-26 14:00:09.698706,5,7.289938e-05,,,,
2022-02-26 14:00:09.699206,5,7.447987e-05,,,,
2022-02-26 14:00:09.699706,5,7.635991e-05,,,,
2022-02-26 14:00:09.700206,5,7.816044e-05,,,,
2022-02-26 14:00:09.700706,5,7.859797e-05,,,,
2022-02-26 14:00:09.701206,5,7.789099e-05,,,,
2022-02-26 14:00:09.701706,5,7.890908e-05,,,,
2022-02-26 14:00:09.702206,5,8.315678e-05,,,,
2022-02-26 14:00:09.702706,5,8.841105e-05,,,,
2022-02-26 14:00:09.703206,5,9.090869e-05,,,,
2022-02-26 14:00:09.703706,5,8.7783556e-05,,,,
2022-02-26 14:00:09.704206,5,7.83478e-05,,,,
2022-02-26 14:00:09.704706,5,6.62607e-05,,,,
2022-02-26 14:00:09.705206,5,5.9467133e-05,,,,
2022-02-26 14:00:09.705706,5,6.163334e-05,,,,
2022-02-26 14:00:09.706206,5,6.801195e-05,,,,
2022-02-26 14:00:09.706706,5,7.407264e-05,,,,
2022-02-26 14:00:09.707206,5,8.004069e-05,,,,
2022-02-26 14:00:09.707706,5,8.8458604e-05,,,,
2022-02-26 14:00:09.708206,5,9.9766345e-05,,,,
2022-02-26 14:00:09.708706,5,0.00010786549,,,,
2022-02-26 14:00:09.709206,5,0.000107601096,,,,
2022-02-26 14:00:09.709706,5,0.00010327824,,,,
2022-02-26 14:00:09.710206,5,0.000101094935,,,,
2022-02-26 14:00:09.710706,5,0.00010192058,,,,
2022-02-26 14:00:09.711206,5,0.00010371887,,,,
2022-02-26 14:00:09.711706,5,0.00010385589,,,,
2022-02-26 14:00:09.712206,5,0.000100585115,,,,
2022-02-26 14:00:09.712706,5,9.491178e-05,,,,
2022-02-26 14:00:09.713206,5,9.025626e-05,,,,
2022-02-26 14:00:09.713706,5,8.803222e-05,,,,
2022-02-26 14:00:09.714206,5,8.487714e-05,,,,
2022-02-26 14:00:09.714706,5,7.835503e-05,,,,
2022-02-26 14:00:09.715206,5,7.0827475e-05,,,,
2022-02-26 14:00:09.715706,5,6.482069e-05,,,,
2022-02-26 14:00:09.716206,5,5.924699e-05,,,,
2022-02-26 14:00:09.716706,5,4.9552953e-05,,,,
2022-02-26 14:00:09.717206,5,3.2625117e-05,,,,
2022-02-26 14:00:09.717706,5,1.2496911e-05,,,,
2022-02-26 14:00:09.718206,5,-3.1587215e-06,,,,
2022-02-26 14:00:09.718706,5,-9.1625525e-06,,,,
2022-02-26 14:00:09.719206,5,-4.9721366e-06,,,,
2022-02-26 14:00:09.719706,5,5.8728683e-06,,,,
2022-02-26 14:00:09.720206,5,1.9515517e-05,,,,
2022-02-26 14:00:09.720706,5,3.3321663e-05,,,,
2022-02-26 14:00:09.721206,5,4.5667945e-05,,,,
2022-02-26 14:00:09.721706,5,5.5670855e-05,,,,
2022-02-26 14:00:09.722206,5,6.2874686e-05,,,,
2022-02-26 14:00:09.722706,5,6.9568305e-05,,,,
2022-02-26 14:00:09.723206,5,7.663091e-05,,,,
2022-02-26 14:00:09.723706,5,8.06055e-05,,,,
2022-02-26 14:00:09.724206,5,8.2669714e-05,,,,
2022-02-26 14:00:09.724706,5,8.685366e-05,,,,
2022-02-26 14:00:09.725206,5,9.118273e-05,,,,
2022-02-26 14:00:09.725706,5,9.354909e-05,,,,
2022-02-26 14:00:09.726206,5,9.677047e-05,,,,
2022-02-26 14:00:09.726706,5,0.000103321596,,,,
2022-02-26 14:00:09.727206,5,0.000111110225,,,,
2022-02-26 14:00:09.727706,5,0.00011443092,,,,
2022-02-26 14:00:09.728206,5,0.00010950731,,,,
2022-02-26 14:00:09.728706,5,9.7504475e-05,,,,
2022-02-26 14:00:09.729206,5,8.228864e-05,,,,
2022-02-26 14:00:09.729706,5,6.839174e-05,,,,
2022-02-26 14:00:09.730206,5,5.7897123e-05,,,,
2022-02-26 14:00:09.730706,5,5.0626884e-05,,,,
2022-02-26 14:00:09.731206,5,4.883152e-05,,,,
2022-02-26 14:00:09.731706,5,5.3467622e-05,,,,
2022-02-26 14:00:09.732206,5,5.890837e-05,,,,
2022-02-26 14:00:09.732706,5,6.011107e-05,,,,
2022-02-26 14:00:09.733206,5,5.8606638e-05,,,,
2022-02-26 14:00:09.733706,5,5.898877e-05,,,,
2022-02-26 14:00:09.734206,5,6.4599255e-05,,,,
2022-02-26 14:00:09.734706,5,7.3949785e-05,,,,
2022-02-26 14:00:09.735206,5,8.174912e-05,,,,
2022-02-26 14:00:09.735706,5,8.508933e-05,,,,
2022-02-26 14:00:09.736206,5,8.465054e-05,,,,
2022-02-26 14:00:09.736706,5,8.102961e-05,,,,
2022-02-26 14:00:09.737206,5,7.568825e-05,,,,
2022-02-26 14:00:09.737706,5,7.3030205e-05,,,,
2022-02-26 14:00:09.738206,5,7.467091e-05,,,,
2022-02-26 14:00:09.738706,5,7.690943e-05,,,,
2022-02-26 14:00:09.739206,5,7.770523e-05,,,,
2022-02-26 14:00:09.739706,5,7.8356345e-05,,,,
2022-02-26 14:00:09.740206,5,7.912881e-05,,,,
2022-02-26 14:00:09.740706,5,7.905313e-05,,,,
2022-02-26 14:00:09.741206,5,7.781624e-05,,,,
2022-02-26 14:00:09.741706,5,7.6594646e-05,,,,
2022-02-26 14:00:09.742206,5,7.757909e-05,,,,
2022-02-26 14:00:09.742706,5,8.095544e-05,,,,
2022-02-26 14:00:09.743206,5,8.4084066e-05,,,,
2022-02-26 14:00:09.743706,5,8.492042e-05,,,,
2022-02-26 14:00:09.744206,5,8.374483e-05,,,,
2022-02-26 14:00:09.744706,5,8.2041544e-05,,,,
2022-02-26 14:00:09.745206,5,8.134922e-05,,,,
2022-02-26 14:00:09.745706,5,8.260267e-05,,,,
2022-02-26 14:00:09.746206,5,8.5016596e-05,,,,
2022-02-26 14:00:09.746706,5,8.635949e-05,,,,
2022-02-26 14:00:09.747206,5,8.649642e-05,,,,
2022-02-26 14:00:09.747706,5,8.735757e-05,,,,
2022-02-26 14:00:09.748206,5,8.8124965e-05,,,,
2022-02-26 14:00:09.748706,5,8.664268e-05,,,,
2022-02-26 14:00:09.749206,5,8.299142e-05,,,,
2022-02-26 14:00:09.749706,5,7.7294084e-05,,,,
2022-02-26 14:00:09.750206,5,7.182744e-05,,,,
2022-02-26 14:00:09.750706,5,6.970146e-05,,,,
2022-02-26 14:00:09.751206,5,6.62272e-05,,,,
2022-02-26 14:00:09.751706,5,5.7269714e-05,,,,
2022-02-26 14:00:09.752206,5,4.9699112e-05,,,,
2022-02-26 14:00:09.752706,5,5.072976e-05,,,,
2022-02-26 14:00:09.753206,5,5.8696678e-05,,,,
2022-02-26 14:00:09.753706,5,6.726733e-05,,,,
2022-02-26 14:00:09.754206,5,7.31624e-05,,,,
2022-02-26 14:00:09.754706,5,7.895406e-05,,,,
2022-02-26 14:00:09.755206,5,8.730377e-05,,,,
2022-02-26 14:00:09.755706,5,9.645647e-05,,,,
2022-02-26 14:00:09.756206,5,0.00010226727,,,,
2022-02-26 14:00:09.756706,5,0.00010111923,,,,
2022-02-26 14:00:09.757206,5,9.269678e-05,,,,
2022-02-26 14:00:09.757706,5,8.066675e-05,,,,
2022-02-26 14:00:09.758206,5,6.937813e-05,,,,
2022-02-26 14:00:09.758706,5,6.294857e-05,,,,
2022-02-26 14:00:09.759206,5,6.648056e-05,,,,
2022-02-26 14:00:09.759706,5,7.853957e-05,,,,
2022-02-26 14:00:09.760206,5,8.761258e-05,,,,
2022-02-26 14:00:09.760706,5,8.698197e-05,,,,
2022-02-26 14:00:09.761206,5,8.034831e-05,,,,
2022-02-26 14:00:09.761706,5,7.017043e-05,,,,
2022-02-26 14:00:09.762206,5,5.7653837e-05,,,,
,Sensor_id,EMG,qw,qx,qy,qz
2022-02-26 14:00:09.992318,5,5.0802773e-05,,,,
2022-02-26 14:00:09.992818,5,5.6250123e-05,,,,
2022-02-26 14:00:09.993318,5,6.6319415e-05,,,,
2022-02-26 14:00:09.993818,5,6.9183705e-05,,,,
2022-02-26 14:00:09.994318,5,6.4885964e-05,,,,
2022-02-26 14:00:09.994818,5,5.8830818e-05,,,,
2022-02-26 14:00:09.995318,5,5.265215e-05,,,,
2022-02-26 14:00:09.995818,5,4.864572e-05,,,,
2022-02-26 14:00:09.996318,5,5.007862e-05,,,,
2022-02-26 14:00:09.996818,5,5.530753e-05,,,,
2022-02-26 14:00:09.997318,5,5.8580918e-05,,,,
2022-02-26 14:00:09.997818,5,5.5248227e-05,,,,
2022-02-26 14:00:09.998318,5,4.8130158e-05,,,,
2022-02-26 14:00:09.998818,5,4.7234193e-05,,,,
2022-02-26 14:00:09.999318,5,5.5739976e-05,,,,
2022-02-26 14:00:09.999818,5,6.558853e-05,,,,
2022-02-26 14:00:10.000318,5,6.9998445e-05,,,,
2022-02-26 14:00:10.000818,5,6.885691e-05,,,,
2022-02-26 14:00:10.001318,5,6.513243e-05,,,,
2022-02-26 14:00:10.001818,5,6.2080726e-05,,,,
2022-02-26 14:00:10.002318,5,6.1590465e-05,,,,
2022-02-26 14:00:10.002818,5,6.405958e-05,,,,
2022-02-26 14:00:10.003318,5,6.9016045e-05,,,,
2022-02-26 14:00:10.003818,5,7.481209e-05,,,,
2022-02-26 14:00:10.004318,5,7.9269914e-05,,,,
2022-02-26 14:00:10.004818,5,8.251954e-05,,,,
2022-02-26 14:00:10.005318,5,8.60846e-05,,,,
2022-02-26 14:00:10.005818,5,8.941803e-05,,,,
2022-02-26 14:00:10.006318,5,9.186683e-05,,,,
2022-02-26 14:00:10.006818,5,9.374174e-05,,,,
2022-02-26 14:00:10.007318,5,9.445288e-05,,,,
2022-02-26 14:00:10.007818,5,9.454817e-05,,,,
2022-02-26 14:00:10.008318,5,9.533832e-05,,,,
2022-02-26 14:00:10.008818,5,9.570874e-05,,,,
2022-02-26 14:00:10.009318,5,9.394154e-05,,,,
2022-02-26 14:00:10.009818,5,9.052323e-05,,,,
2022-02-26 14:00:10.010318,5,8.740152e-05,,,,
2022-02-26 14:00:10.010818,5,8.491721e-05,,,,
2022-02-26 14:00:10.011318,5,8.0770005e-05,,,,
2022-02-26 14:00:10.011818,5,7.538035e-05,,,,
2022-02-26 14:00:10.012318,5,7.40885e-05,,,,
2022-02-26 14:00:10.012818,5,7.9092395e-05,,,,
2022-02-26 14:00:10.013318,5,8.625178e-05,,,,
2022-02-26 14:00:10.013818,5,9.1632435e-05,,,,
2022-02-26 14:00:10.014318,5,9.3327755e-05,,,,
2022-02-26 14:00:10.014818,5,8.885463e-05,,,,
2022-02-26 14:00:10.015318,5,7.8029596e-05,,,,
2022-02-26 14:00:10.015818,5,6.528917e-05,,,,
2022-02-26 14:00:10.016318,5,5.482357e-05,,,,
2022-02-26 14:00:10.016818,5,4.7371657e-05,,,,
2022-02-26 14:00:10.017318,5,4.1440657e-05,,,,
2022-02-26 14:00:10.017818,5,3.633712e-05,,,,
2022-02-26 14:00:10.018318,5,3.668257e-05,,,,
2022-02-26 14:00:10.018818,5,4.582423e-05,,,,
2022-02-26 14:00:10.019318,5,5.8719546e-05,,,,
2022-02-26 14:00:10.019818,5,7.29891e-05,,,,
2022-02-26 14:00:10.020318,5,8.732269e-05,,,,
2022-02-26 14:00:10.020818,5,9.372367e-05,,,,
2022-02-26 14:00:10.021318,5,9.346817e-05,,,,
2022-02-26 14:00:10.021818,5,9.5362695e-05,,,,
2022-02-26 14:00:10.022318,5,9.750895e-05,,,,
2022-02-26 14:00:10.022818,5,9.5335534e-05,,,,
2022-02-26 14:00:10.023318,5,9.199226e-05,,,,
2022-02-26 14:00:10.023818,5,9.137313e-05,,,,
2022-02-26 14:00:10.024318,5,9.081668e-05,,,,
2022-02-26 14:00:10.024818,5,8.256101e-05,,,,
2022-02-26 14:00:10.025318,5,6.533944e-05,,,,
2022-02-26 14:00:10.025818,5,4.812937e-05,,,,
2022-02-26 14:00:10.026318,5,3.5448444e-05,,,,
2022-02-26 14:00:10.026818,5,2.4896963e-05,,,,
2022-02-26 14:00:10.027318,5,2.0811229e-05,,,,
2022-02-26 14:00:10.027818,5,2.9829594e-05,,,,
2022-02-26 14:00:10.028318,5,4.771703e-05,,,,
2022-02-26 14:00:10.028818,5,6.488024e-05,,,,
2022-02-26 14:00:10.029318,5,7.626136e-05,,,,
2022-02-26 14:00:10.029818,5,8.119495e-05,,,,
2022-02-26 14:00:10.030318,5,8.11838e-05,,,,
2022-02-26 14:00:10.030818,5,7.9597296e-05,,,,
2022-02-26 14:00:10.031318,5,8.046126e-05,,,,
2022-02-26 14:00:10.031818,5,8.44991e-05,,,,
2022-02-26 14:00:10.032318,5,8.8579734e-05,,,,
2022-02-26 14:00:10.032818,5,8.954874e-05,,,,
2022-02-26 14:00:10.033318,5,8.6336964e-05,,,,
2022-02-26 14:00:10.033818,5,8.179169e-05,,,,
2022-02-26 14:00:10.034318,5,8.084971e-05,,,,
2022-02-26 14:00:10.034818,5,8.4143554e-05,,,,
2022-02-26 14:00:10.035318,5,8.734833e-05,,,,
2022-02-26 14:00:10.035818,5,8.7202265e-05,,,,
2022-02-26 14:00:10.036318,5,8.581146e-05,,,,
2022-02-26 14:00:10.036818,5,8.7059896e-05,,,,
2022-02-26 14:00:10.037318,5,9.066781e-05,,,,
2022-02-26 14:00:10.037818,5,9.374099e-05,,,,
2022-02-26 14:00:10.038318,5,9.498373e-05,,,,
2022-02-26 14:00:10.038818,5,9.583822e-05,,,,
2022-02-26 14:00:10.039318,5,9.899863e-05,,,,
2022-02-26 14:00:10.039818,5,0.00010373865,,,,
2022-02-26 14:00:10.040318,5,0.00010561168,,,,
2022-02-26 14:00:10.040818,5,0.00010273797,,,,
2022-02-26 14:00:10.041318,5,9.719924e-05,,,,
2022-02-26 14:00:10.041818,5,9.103259e-05,,,,
2022-02-26 14:00:10.042318,5,8.4759915e-05,,,,
2022-02-26 14:00:10.042818,5,7.814735e-05,,,,
2022-02-26 14:00:10.043318,5,7.088051e-05,,,,
2022-02-26 14:00:10.043818,5,6.33476e-05,,,,
2022-02-26 14:00:10.044318,5,5.7458743e-05,,,,
2022-02-26 14:00:10.044818,5,5.5442877e-05,,,,
2022-02-26 14:00:10.045318,5,5.6710447e-05,,,,
2022-02-26 14:00:10.045818,5,5.8348654e-05,,,,
2022-02-26 14:00:10.046318,5,6.005084e-05,,,,
2022-02-26 14:00:10.046818,5,6.3790576e-05,,,,
2022-02-26 14:00:10.047318,5,6.633849e-05,,,,
2022-02-26 14:00:10.047818,5,6.1327846e-05,,,,
2022-02-26 14:00:10.048318,5,5.011346e-05,,,,
2022-02-26 14:00:10.048818,5,4.0609073e-05,,,,
2022-02-26 14:00:10.049318,5,3.8254813e-05,,,,
2022-02-26 14:00:10.049818,5,4.3128483e-05,,,,
2022-02-26 14:00:10.050318,5,5.2490414e-05,,,,
2022-02-26 14:00:10.050818,5,6.426502e-05,,,,
2022-02-26 14:00:10.051318,5,7.4544856e-05,,,,
2022-02-26 14:00:10.051818,5,7.496623e-05,,,,
2022-02-26 14:00:10.052318,5,6.506655e-05,,,,
2022-02-26 14:00:10.052818,5,5.82312e-05,,,,
2022-02-26 14:00:10.053318,5,6.2732455e-05,,,,
2022-02-26 14:00:10.053818,5,7.2477116e-05,,,,
2022-02-26 14:00:10.054318,5,7.821002e-05,,,,
2022-02-26 14:00:10.054818,5,7.660056e-05,,,,
2022-02-26 14:00:10.055318,5,7.321848e-05,,,,
2022-02-26 14:00:10.055818,5,7.295755e-05,,,,
2022-02-26 14:00:10.056318,5,6.951368e-05,,,,
2022-02-26 14:00:10.056818,5,5.7948517e-05,,,,
2022-02-26 14:00:10.057318,5,4.5442655e-05,,,,
2022-02-26 14:00:10.057818,5,3.9582417e-05,,,,
2022-02-26 14:00:10.058318,5,4.064538e-05,,,,
2022-02-26 14:00:10.058818,5,4.5545814e-05,,,,
2022-02-26 14:00:10.059318,5,5.0378996e-05,,,,
2022-02-26 14:00:10.059818,5,5.3637155e-05,,,,
2022-02-26 14:00:10.060318,5,5.7752517e-05,,,,
2022-02-26 14:00:10.060818,5,6.2739826e-05,,,,
2022-02-26 14:00:10.061318,5,6.4355496e-05,,,,
2022-02-26 14:00:10.061818,5,6.220663e-05,,,,
2022-02-26 14:00:10.062318,5,6.0792907e-05,,,,
2022-02-26 14:00:10.062818,5,6.264829e-05,,,,
2022-02-26 14:00:10.063318,5,6.695726e-05,,,,
2022-02-26 14:00:10.063818,5,7.265193e-05,,,,
2022-02-26 14:00:10.064318,5,7.97911e-05,,,,
2022-02-26 14:00:10.064818,5,8.741689e-05,,,,
2022-02-26 14:00:10.065318,5,9.233038e-05,,,,
2022-02-26 14:00:10.065818,5,9.4116265e-05,,,,
2022-02-26 14:00:10.066318,5,9.754107e-05,,,,
2022-02-26 14:00:10.066818,5,0.00010596669,,,,
2022-02-26 14:00:10.067318,5,0.00011781186,,,,
2022-02-26 14:00:10.067818,5,0.00012966072,,,,
2022-02-26 14:00:10.068318,5,0.00013836578,,,,
2022-02-26 14:00:10.068818,5,0.00014208564,,,,
2022-02-26 14:00:10.069318,5,0.00014154751,,,,
2022-02-26 14:00:10.069818,5,0.0001390635,,,,
2022-02-26 14:00:10.070318,5,0.00013524796,,,,
2022-02-26 14:00:10.070818,5,0.00012940908,,,,
2022-02-26 14:00:10.071318,5,0.00012497972,,,,
2022-02-26 14:00:10.071818,5,0.00012818811,,,,
2022-02-26 14:00:10.072318,5,0.00013884826,,,,
2022-02-26 14:00:10.072818,5,0.00014979657,,,,
2022-02-26 14:00:10.073318,5,0.00015076081,,,,
2022-02-26 14:00:10.073818,5,0.0001311116,,,,
2022-02-26 14:00:10.074318,5,9.6155054e-05,,,,
2022-02-26 14:00:10.074818,5,7.1382776e-05,,,,
2022-02-26 14:00:10.075318,5,7.1540744e-05,,,,
2022-02-26 14:00:10.075818,5,8.0998005e-05,,,,
2022-02-26 14:00:10.076318,5,7.676459e-05,,,,
2022-02-26 14:00:10.076818,5,5.6338864e-05,,,,
2022-02-26 14:00:10.077318,5,3.1091593e-05,,,,
2022-02-26 14:00:10.077818,5,6.9223806e-06,,,,
2022-02-26 14:00:10.078318,5,-1.7480828e-05,,,,
2022-02-26 14:00:10.078818,5,-4.471854e-05,,,,
2022-02-26 14:00:10.079318,5,-6.965641e-05,,,,
2022-02-26 14:00:10.079818,5,-7.811921e-05,,,,
2022-02-26 14:00:10.080318,5,-6.8345944e-05,,,,
2022-02-26 14:00:10.080818,5,-5.6068846e-05,,,,
2022-02-26 14:00:10.081318,5,-4.8871723e-05,,,,
2022-02-26 14:00:10.081818,5,-3.9864357e-05,,,,
2022-02-26 14:00:10.082318,5,-2.2953544e-05,,,,
2022-02-26 14:00:10.082818,5,3.2701436e-07,,,,
2022-02-26 14:00:10.083318,5,2.256963e-05,,,,
2022-02-26 14:00:10.083818,5,3.788639e-05,,,,
2022-02-26 14:00:10.084318,5,4.599195e-05,,,,
2022-02-26 14:00:10.084818,5,4.820524e-05,,,,
2022-02-26 14:00:10.085318,5,4.706917e-05,,,,
2022-02-26 14:00:10.085818,5,4.8307094e-05,,,,
2022-02-26 14:00:10.086318,5,5.4936543e-05,,,,
2022-02-26 14:00:10.086818,5,6.32641e-05,,,,
2022-02-26 14:00:10.087318,5,7.162132e-05,,,,
2022-02-26 14:00:10.087818,5,8.10734e-05,,,,
2022-02-26 14:00:10.088318,5,8.741085e-05,,,,
2022-02-26 14:00:10.088818,5,8.818153e-05,,,,
2022-02-26 14:00:10.089318,5,8.7486136e-05,,,,
2022-02-26 14:00:10.089818,5,8.830166e-05,,,,
2022-02-26 14:00:10.090318,5,9.2269176e-05,,,,
2022-02-26 14:00:10.090818,5,0.00010078525,,,,
2022-02-26 14:00:10.091318,5,0.00011025688,,,,
2022-02-26 14:00:10.091818,5,0.00011590399,,,,
2022-02-26 14:00:10.092318,5,0.00011870697,,,,
2022-02-26 14:00:10.092818,5,0.00012100257,,,,
2022-02-26 14:00:10.093318,5,0.00012172154,,,,
2022-02-26 14:00:10.093818,5,0.000120288765,,,,
2022-02-26 14:00:10.094318,5,0.00011865863,,,,
2022-02-26 14:00:10.094818,5,0.000118040305,,,,
2022-02-26 14:00:10.095318,5,0.00011765079,,,,
2022-02-26 14:00:10.095818,5,0.0001163426,,,,
2022-02-26 14:00:10.096318,5,0.000114338094,,,,
2022-02-26 14:00:10.096818,5,0.00011349508,,,,
2022-02-26 14:00:10.097318,5,0.000113839385,,,,
2022-02-26 14:00:10.097818,5,0.00011244046,,,,
2022-02-26 14:00:10.098318,5,0.00010923512,,,,
2022-02-26 14:00:10.098818,5,0.00010771489,,,,
2022-02-26 14:00:10.099318,5,0.00010791511,,,,
2022-02-26 14:00:10.099818,5,0.00010700027,,,,
2022-02-26 14:00:10.100318,5,0.00010285643,,,,
2022-02-26 14:00:10.100818,5,9.250097e-05,,,,
2022-02-26 14:00:10.101318,5,7.9052596e-05,,,,
2022-02-26 14:00:10.101818,5,7.341831e-05,,,,
2022-02-26 14:00:10.102318,5,7.78456e-05,,,,
2022-02-26 14:00:10.102818,5,8.404327e-05,,,,
2022-02-26 14:00:10.103318,5,8.7586865e-05,,,,
2022-02-26 14:00:10.103818,5,9.021373e-05,,,,
2022-02-26 14:00:10.104318,5,9.277164e-05,,,,
2022-02-26 14:00:10.104818,5,9.303898e-05,,,,
2022-02-26 14:00:10.105318,5,9.0376576e-05,,,,
2022-02-26 14:00:10.105818,5,8.815019e-05,,,,
2022-02-26 14:00:10.106318,5,8.8825625e-05,,,,
2022-02-26 14:00:10.106818,5,9.131405e-05,,,,
2022-02-26 14:00:10.107318,5,9.392227e-05,,,,
2022-02-26 14:00:10.107818,5,9.5153526e-05,,,,
2022-02-26 14:00:10.108318,5,9.277255e-05,,,,
2022-02-26 14:00:10.108818,5,8.483969e-05,,,,
2022-02-26 14:00:10.109318,5,7.061302e-05,,,,
2022-02-26 14:00:10.109818,5,5.236674e-05,,,,
2022-02-26 14:00:10.110318,5,3.6313322e-05,,,,
2022-02-26 14:00:10.110818,5,2.7260467e-05,,,,
2022-02-26 14:00:10.111318,5,2.561531e-05,,,,
2022-02-26 14:00:10.111818,5,3.1062817e-05,,,,
2022-02-26 14:00:10.112318,5,4.20025e-05,,,,
2022-02-26 14:00:10.112818,5,5.2460164e-05,,,,
2022-02-26 14:00:10.113318,5,5.6916593e-05,,,,
2022-02-26 14:00:10.113818,5,5.7692207e-05,,,,
2022-02-26 14:00:10.114318,5,6.149745e-05,,,,
2022-02-26 14:00:10.114818,5,6.9286725e-05,,,,
2022-02-26 14:00:10.115318,5,7.614138e-05,,,,
2022-02-26 14:00:10.115818,5,7.933221e-05,,,,
2022-02-26 14:00:10.116318,5,7.892459e-05,,,,
2022-02-26 14:00:10.116818,5,7.490917e-05,,,,
2022-02-26 14:00:10.117318,5,7.0695125e-05,,,,
2022-02-26 14:00:10.117818,5,7.178305e-05,,,,
2022-02-26 14:00:10.118318,5,7.800603e-05,,,,
2022-02-26 14:00:10.118818,5,8.362945e-05,,,,
2022-02-26 14:00:10.119318,5,8.325938e-05,,,,
2022-02-26 14:00:10.119818,5,7.715933e-05,,,,
2022-02-26 14:00:10.120318,5,7.112996e-05,,,,
2022-02-26 14:00:10.120818,5,6.815874e-05,,,,
2022-02-26 14:00:10.121318,5,6.627012e-05,,,,
2022-02-26 14:00:10.121818,5,6.487916e-05,,,,
2022-02-26 14:00:10.122318,5,6.4909764e-05,,,,
2022-02-26 14:00:10.122818,5,6.5375476e-05,,,,
2022-02-26 14:00:10.123318,5,6.535809e-05,,,,
2022-02-26 14:00:10.123818,5,6.609104e-05,,,,
2022-02-26 14:00:10.124318,5,6.741516e-05,,,,
2022-02-26 14:00:10.124818,5,6.651208e-05,,,,
2022-02-26 14:00:10.125318,5,6.3880674e-05,,,,
2022-02-26 14:00:10.125818,5,6.367964e-05,,,,
2022-02-26 14:00:10.126318,5,6.585798e-05,,,,
2022-02-26 14:00:10.126818,5,6.671437e-05,,,,
2022-02-26 14:00:10.127318,5,6.7167995e-05,,,,
2022-02-26 14:00:10.127818,5,7.084367e-05,,,,
2022-02-26 14:00:10.128318,5,7.47041e-05,,,,
2022-02-26 14:00:10.128818,5,7.423537e-05,,,,
2022-02-26 14:00:10.129318,5,7.399363e-05,,,,
2022-02-26 14:00:10.129818,5,7.790423e-05,,,,
2022-02-26 14:00:10.130318,5,8.1318074e-05,,,,
2022-02-26 14:00:10.130818,5,8.276747e-05,,,,
2022-02-26 14:00:10.131318,5,8.665508e-05,,,,
2022-02-26 14:00:10.131818,5,9.340412e-05,,,,
2022-02-26 14:00:10.132318,5,9.8310265e-05,,,,
2022-02-26 14:00:10.132818,5,9.654173e-05,,,,
2022-02-26 14:00:10.133318,5,8.85706e-05,,,,
2022-02-26 14:00:10.133818,5,8.1191276e-05,,,,
2022-02-26 14:00:10.134318,5,7.942263e-05,,,,
2022-02-26 14:00:10.134818,5,8.2280334e-05,,,,
2022-02-26 14:00:10.135318,5,8.625494e-05,,,,
2022-02-26 14:00:10.135818,5,8.95833e-05,,,,
2022-02-26 14:00:10.136318,5,9.5608186e-05,,,,
2022-02-26 14:00:10.136818,5,0.00010700574,,,,
2022-02-26 14:00:10.137318,5,0.00011864676,,,,
2022-02-26 14:00:10.137818,5,0.0001243863,,,,
2022-02-26 14:00:10.138318,5,0.00012332955,,,,
2022-02-26 14:00:10.138818,5,0.0001163705,,,,
2022-02-26 14:00:10.139318,5,0.00010458248,,,,
2022-02-26 14:00:10.139818,5,8.991624e-05,,,,
2022-02-26 14:00:10.140318,5,7.586674e-05,,,,
2022-02-26 14:00:10.140818,5,6.4986976e-05,,,,
2022-02-26 14:00:10.141318,5,5.3338157e-05,,,,
2022-02-26 14:00:10.141818,5,3.98565e-05,,,,
2022-02-26 14:00:10.142318,5,3.598143e-05,,,,
2022-02-26 14:00:10.142818,5,4.78319e-05,,,,
2022-02-26 14:00:10.143318,5,6.188286e-05,,,,
2022-02-26 14:00:10.143818,5,6.168057e-05,,,,
2022-02-26 14:00:10.144318,5,4.7556074e-05,,,,
2022-02-26 14:00:10.144818,5,3.038282e-05,,,,
2022-02-26 14:00:10.145318,5,1.5458656e-05,,,,
2022-02-26 14:00:10.145818,5,5.6193694e-06,,,,
2022-02-26 14:00:10.146318,5,9.335226e-06,,,,
2022-02-26 14:00:10.146818,5,2.7698848e-05,,,,
2022-02-26 14:00:10.147318,5,4.643158e-05,,,,
2022-02-26 14:00:10.147818,5,5.4573084e-05,,,,
2022-02-26 14:00:10.148318,5,5.2720614e-05,,,,
2022-02-26 14:00:10.148818,5,4.2151343e-05,,,,
2022-02-26 14:00:10.149318,5,2.496342e-05,,,,
2022-02-26 14:00:10.149818,5,8.357125e-06,,,,
2022-02-26 14:00:10.150318,5,2.0189486e-06,,,,
2022-02-26 14:00:10.150818,5,1.5908605e-05,,,,
2022-02-26 14:00:10.151318,5,4.8446524e-05,,,,
2022-02-26 14:00:10.151818,5,7.996387e-05,,,,
2022-02-26 14:00:10.152318,5,9.334571e-05,,,,
2022-02-26 14:00:10.152818,5,8.8706845e-05,,,,
2022-02-26 14:00:10.153318,5,7.834135e-05,,,,
2022-02-26 14:00:10.153818,5,7.497305e-05,,,,
2022-02-26 14:00:10.154318,5,7.817533e-05,,,,
2022-02-26 14:00:10.154818,5,7.756507e-05,,,,
2022-02-26 14:00:10.155318,5,6.616879e-05,,,,
2022-02-26 14:00:10.155818,5,5.0399758e-05,,,,
2022-02-26 14:00:10.156318,5,4.781525e-05,,,,
2022-02-26 14:00:10.156818,5,6.0598304e-05,,,,
2022-02-26 14:00:10.157318,5,7.143954e-05,,,,
2022-02-26 14:00:10.157818,5,7.669051e-05,,,,
2022-02-26 14:00:10.158318,5,8.7186665e-05,,,,
2022-02-26 14:00:10.158818,5,0.00010190839,,,,
2022-02-26 14:00:10.159318,5,0.00011120502,,,,
2022-02-26 14:00:10.159818,5,0.00011153541,,,,
2022-02-26 14:00:10.160318,5,0.00010624487,,,,
2022-02-26 14:00:10.160818,5,0.00010221432,,,,
2022-02-26 14:00:10.161318,5,0.00010473921,,,,
2022-02-26 14:00:10.161818,5,0.000113819915,,,,
2022-02-26 14:00:10.162318,5,0.00012487081,,,,
2022-02-26 14:00:10.162818,5,0.00013155652,,,,
2022-02-26 14:00:10.163318,5,0.00013038017,,,,
2022-02-26 14:00:10.163818,5,0.0001229984,,,,
2022-02-26 14:00:10.164318,5,0.000113814,,,,
2022-02-26 14:00:10.164818,5,0.00010609284,,,,
2022-02-26 14:00:10.165318,5,0.000100959056,,,,
2022-02-26 14:00:10.165818,5,9.7848635e-05,,,,
2022-02-26 14:00:10.166318,5,9.4771836e-05,,,,
2022-02-26 14:00:10.166818,5,9.042742e-05,,,,
2022-02-26 14:00:10.167318,5,8.578035e-05,,,,
2022-02-26 14:00:10.167818,5,7.770398e-05,,,,
2022-02-26 14:00:10.168318,5,5.5089935e-05,,,,
2022-02-26 14:00:10.168818,5,1.955622e-05,,,,
2022-02-26 14:00:10.169318,5,-6.7916944e-06,,,,
2022-02-26 14:00:10.169818,5,-1.3487844e-05,,,,
2022-02-26 14:00:10.170318,5,-9.349841e-06,,,,
2022-02-26 14:00:10.170818,5,6.880405e-07,,,,
2022-02-26 14:00:10.171318,5,1.4319076e-05,,,,
2022-02-26 14:00:10.171818,5,2.4416311e-05,,,,
2022-02-26 14:00:10.172318,5,2.9411136e-05,,,,
2022-02-26 14:00:10.172818,5,3.475136e-05,,,,
2022-02-26 14:00:10.173318,5,4.2894957e-05,,,,
2022-02-26 14:00:10.173818,5,5.2863907e-05,,,,
2022-02-26 14:00:10.174318,5,6.4779604e-05,,,,
2022-02-26 14:00:10.174818,5,7.851197e-05,,,,
2022-02-26 14:00:10.175318,5,9.095596e-05,,,,
2022-02-26 14:00:10.175818,5,9.730338e-05,,,,
2022-02-26 14:00:10.176318,5,9.512288e-05,,,,
2022-02-26 14:00:10.176818,5,8.643534e-05,,,,
2022-02-26 14:00:10.177318,5,7.6572505e-05,,,,
2022-02-26 14:00:10.177818,5,7.1543276e-05,,,,
2022-02-26 14:00:10.178318,5,7.089677e-05,,,,
2022-02-26 14:00:10.178818,5,6.681278e-05,,,,
2022-02-26 14:00:10.179318,5,5.819449e-05,,,,
2022-02-26 14:00:10.179818,5,5.3272874e-05,,,,
2022-02-26 14:00:10.180318,5,5.4758562e-05,,,,
2022-02-26 14:00:10.180818,5,5.7717236e-05,,,,
2022-02-26 14:00:10.181318,5,6.00261e-05,,,,
2022-02-26 14:00:10.181818,5,6.429786e-05,,,,
2022-02-26 14:00:10.182318,5,7.087383e-05,,,,
2022-02-26 14:00:10.182818,5,7.659516e-05,,,,
2022-02-26 14:00:10.183318,5,8.128028e-05,,,,
2022-02-26 14:00:10.183818,5,8.665589e-05,,,,
2022-02-26 14:00:10.184318,5,9.137845e-05,,,,
2022-02-26 14:00:10.184818,5,9.469977e-05,,,,
2022-02-26 14:00:10.185318,5,9.8154414e-05,,,,
2022-02-26 14:00:10.185818,5,0.00010092672,,,,
2022-02-26 14:00:10.186318,5,0.00010020922,,,,
2022-02-26 14:00:10.186818,5,9.493218e-05,,,,
2022-02-26 14:00:10.187318,5,8.752338e-05,,,,
2022-02-26 14:00:10.187818,5,8.277471e-05,,,,
2022-02-26 14:00:10.188318,5,8.2140265e-05,,,,
2022-02-26 14:00:10.188818,5,8.2728395e-05,,,,
2022-02-26 14:00:10.189318,5,8.358371e-05,,,,
2022-02-26 14:00:10.189818,5,8.623532e-05,,,,
2022-02-26 14:00:10.190318,5,9.070442e-05,,,,
2022-02-26 14:00:10.190818,5,9.524662e-05,,,,
2022-02-26 14:00:10.191318,5,9.7617085e-05,,,,
2022-02-26 14:00:10.191818,5,9.638369e-05,,,,
2022-02-26 14:00:10.192318,5,9.245948e-05,,,,
2022-02-26 14:00:10.192818,5,9.001877e-05,,,,
2022-02-26 14:00:10.193318,5,9.429503e-05,,,,
2022-02-26 14:00:10.193818,5,0.000105698426,,,,
2022-02-26 14:00:10.194318,5,0.00011831785,,,,
2022-02-26 14:00:10.194818,5,0.00012572797,,,,
2022-02-26 14:00:10.195318,5,0.00012641693,,,,
2022-02-26 14:00:10.195818,5,0.00012207674,,,,
2022-02-26 14:00:10.196318,5,0.000114799564,,,,
2022-02-26 14:00:10.196818,5,0.00010850922,,,,
2022-02-26 14:00:10.197318,5,0.00010507527,,,,
2022-02-26 14:00:10.197818,5,0.000100522935,,,,
2022-02-26 14:00:10.198318,5,9.0941634e-05,,,,
2022-02-26 14:00:10.198818,5,7.7862685e-05,,,,
2022-02-26 14:00:10.199318,5,6.7049616e-05,,,,
2022-02-26 14:00:10.199818,5,6.213332e-05,,,,
2022-02-26 14:00:10.200318,5,6.1031795e-05,,,,
2022-02-26 14:00:10.200818,5,6.209403e-05,,,,
2022-02-26 14:00:10.201318,5,6.8023495e-05,,,,
2022-02-26 14:00:10.201818,5,8.071548e-05,,,,
2022-02-26 14:00:10.202318,5,9.7020944e-05,,,,
2022-02-26 14:00:10.202818,5,0.00011000454,,,,
2022-02-26 14:00:10.203318,5,0.00011401864,,,,
2022-02-26 14:00:10.203818,5,0.00010927881,,,,
2022-02-26 14:00:10.204318,5,9.9630655e-05,,,,
2022-02-26 14:00:10.204818,5,8.739639e-05,,,,
2022-02-26 14:00:10.205318,5,7.29181e-05,,,,
2022-02-26 14:00:10.205818,5,5.7084646e-05,,,,
2022-02-26 14:00:10.206318,5,4.2556265e-05,,,,
2022-02-26 14:00:10.206818,5,3.190906e-05,,,,
2022-02-26 14:00:10.207318,5,2.416103e-05,,,,
2022-02-26 14:00:10.207818,5,1.6978e-05,,,,
2022-02-26 14:00:10.208318,5,1.30221015e-05,,,,
2022-02-26 14:00:10.208818,5,1.7334749e-05,,,,
2022-02-26 14:00:10.209318,5,2.8844193e-05,,,,
2022-02-26 14:00:10.209818,5,4.0301304e-05,,,,
2022-02-26 14:00:10.210318,5,4.580301e-05,,,,
2022-02-26 14:00:10.210818,5,4.5745863e-05,,,,
2022-02-26 14:00:10.211318,5,4.4211465e-05,,,,
2022-02-26 14:00:10.211818,5,4.4188724e-05,,,,
2022-02-26 14:00:10.212318,5,4.627594e-05,,,,
2022-02-26 14:00:10.212818,5,4.866458e-05,,,,
2022-02-26 14:00:10.213318,5,4.9300506e-05,,,,
2022-02-26 14:00:10.213818,5,4.888903e-05,,,,
2022-02-26 14:00:10.214318,5,4.9532013e-05,,,,
2022-02-26 14:00:10.214818,5,5.2417392e-05,,,,
2022-02-26 14:00:10.215318,5,5.7628185e-05,,,,
2022-02-26 14:00:10.215818,5,6.406532e-05,,,,
2022-02-26 14:00:10.216318,5,6.967134e-05,,,,
2022-02-26 14:00:10.216818,5,7.281815e-05,,,,
2022-02-26 14:00:10.217318,5,7.359644e-05,,,,
2022-02-26 14:00:10.217818,5,7.3721574e-05,,,,
2022-02-26 14:00:10.218318,5,7.5448464e-05,,,,
2022-02-26 14:00:10.218818,5,7.966367e-05,,,,
2022-02-26 14:00:10.219318,5,8.4918975e-05,,,,
2022-02-26 14:00:10.219818,5,8.847749e-05,,,,
2022-02-26 14:00:10.220318,5,8.815624e-05,,,,
2022-02-26 14:00:10.220818,5,8.4705774e-05,,,,
2022-02-26 14:00:10.221318,5,8.131618e-05,,,,
2022-02-26 14:00:10.221818,5,8.146755e-05,,,,
2022-02-26 14:00:10.222318,5,8.737391e-05,,,,
2022-02-26 14:00:10.222818,5,9.5141375e-05,,,,
2022-02-26 14:00:10.223318,5,9.827058e-05,,,,
2022-02-26 14:00:10.223818,5,9.857718e-05,,,,
2022-02-26 14:00:10.224318,5,0.0001005167,,,,
2022-02-26 14:00:10.224818,5,0.00010220199,,,,
2022-02-26 14:00:10.225318,5,0.000102505735,,,,
2022-02-26 14:00:10.225818,5,0.00010405758,,,,
2022-02-26 14:00:10.226318,5,0.0001065068,,,,
2022-02-26 14:00:10.226818,5,0.00010606114,,,,
2022-02-26 14:00:10.227318,5,9.9660625e-05,,,,
2022-02-26 14:00:10.227818,5,8.795659e-05,,,,
2022-02-26 14:00:10.228318,5,7.521798e-05,,,,
2022-02-26 14:00:10.228818,5,6.4389234e-05,,,,
2022-02-26 14:00:10.229318,5,5.491595e-05,,,,
2022-02-26 14:00:10.229818,5,4.511326e-05,,,,
2022-02-26 14:00:10.230318,5,3.50746e-05,,,,
2022-02-26 14:00:10.230818,5,2.8845885e-05,,,,
2022-02-26 14:00:10.231318,5,2.8486123e-05,,,,
2022-02-26 14:00:10.231818,5,2.8400744e-05,,,,
2022-02-26 14:00:10.232318,5,2.4855812e-05,,,,
2022-02-26 14:00:10.232818,5,2.268352e-05,,,,
2022-02-26 14:00:10.233318,5,2.660568e-05,,,,
2022-02-26 14:00:10.233818,5,3.6075086e-05,,,,
2022-02-26 14:00:10.234318,5,4.8507976e-05,,,,
2022-02-26 14:00:10.234818,5,6.0159913e-05,,,,
2022-02-26 14:00:10.235318,5,6.6332e-05,,,,
2022-02-26 14:00:10.235818,5,6.659664e-05,,,,
2022-02-26 14:00:10.236318,5,6.6971e-05,,,,
2022-02-26 14:00:10.236818,5,7.120711e-05,,,,
2022-02-26 14:00:10.237318,5,7.582757e-05,,,,
2022-02-26 14:00:10.237818,5,7.653264e-05,,,,
2022-02-26 14:00:10.238318,5,7.312719e-05,,,,
2022-02-26 14:00:10.238818,5,6.989035e-05,,,,
2022-02-26 14:00:10.239318,5,7.13647e-05,,,,
2022-02-26 14:00:10.239818,5,7.602503e-05,,,,
2022-02-26 14:00:10.240318,5,7.96554e-05,,,,
2022-02-26 14:00:10.240818,5,8.21177e-05,,,,
2022-02-26 14:00:10.241318,5,8.499076e-05,,,,
2022-02-26 14:00:10.241818,5,8.817141e-05,,,,
2022-02-26 14:00:10.242318,5,9.19823e-05,,,,
2022-02-26 14:00:10.242818,5,9.768524e-05,,,,
2022-02-26 14:00:10.243318,5,0.00010466929,,,,
2022-02-26 14:00:10.243818,5,0.000110324974,,,,
2022-02-26 14:00:10.244318,5,0.000112626825,,,,
2022-02-26 14:00:10.244818,5,0.00011323534,,,,
2022-02-26 14:00:10.245318,5,0.00011766914,,,,
2022-02-26 14:00:10.245818,5,0.00012661685,,,,
2022-02-26 14:00:10.246318,5,0.00013275554,,,,
2022-02-26 14:00:10.246818,5,0.0001337072,,,,
2022-02-26 14:00:10.247318,5,0.00013478994,,,,
2022-02-26 14:00:10.247818,5,0.00013610901,,,,
2022-02-26 14:00:10.248318,5,0.00013374434,,,,
2022-02-26 14:00:10.248818,5,0.00012789256,,,,
2022-02-26 14:00:10.249318,5,0.00011756371,,,,
2022-02-26 14:00:10.249818,5,0.000101864076,,,,
2022-02-26 14:00:10.250318,5,8.47113e-05,,,,
2022-02-26 14:00:10.250818,5,6.4998756e-05,,,,
2022-02-26 14:00:10.251318,5,3.9773684e-05,,,,
2022-02-26 14:00:10.251818,5,1.542952e-05,,,,
2022-02-26 14:00:10.252318,5,-3.0639253e-06,,,,
2022-02-26 14:00:10.252818,5,-1.7623292e-05,,,,
2022-02-26 14:00:10.253318,5,-2.5599891e-05,,,,
2022-02-26 14:00:10.253818,5,-2.1881673e-05,,,,
2022-02-26 14:00:10.254318,5,-8.1798125e-06,,,,
2022-02-26 14:00:10.254818,5,8.33254e-06,,,,
2022-02-26 14:00:10.255318,5,2.006504e-05,,,,
2022-02-26 14:00:10.255818,5,2.5949554e-05,,,,
2022-02-26 14:00:10.256318,5,3.170307e-05,,,,
2022-02-26 14:00:10.256818,5,3.9654642e-05,,,,
2022-02-26 14:00:10.257318,5,4.685773e-05,,,,
2022-02-26 14:00:10.257818,5,5.120384e-05,,,,
2022-02-26 14:00:10.258318,5,5.3482152e-05,,,,
2022-02-26 14:00:10.258818,5,5.6191857e-05,,,,
2022-02-26 14:00:10.259318,5,5.977172e-05,,,,
2022-02-26 14:00:10.259818,5,6.1506835e-05,,,,
2022-02-26 14:00:10.260318,5,6.130579e-05,,,,
2022-02-26 14:00:10.260818,5,6.276058e-05,,,,
2022-02-26 14:00:10.261318,5,6.679261e-05,,,,
2022-02-26 14:00:10.261818,5,7.071492e-05,,,,
2022-02-26 14:00:10.262318,5,7.361333e-05,,,,
2022-02-26 14:00:10.262818,5,7.810419e-05,,,,
2022-02-26 14:00:10.263318,5,8.502663e-05,,,,
2022-02-26 14:00:10.263818,5,9.154278e-05,,,,
2022-02-26 14:00:10.264318,5,9.69454e-05,,,,
2022-02-26 14:00:10.264818,5,0.00010155136,,,,
2022-02-26 14:00:10.265318,5,0.00010278483,,,,
2022-02-26 14:00:10.265818,5,0.000101211444,,,,
2022-02-26 14:00:10.266318,5,0.00010156997,,,,
2022-02-26 14:00:10.266818,5,0.00010475127,,,,
2022-02-26 14:00:10.267318,5,0.00010750133,,,,
2022-02-26 14:00:10.267818,5,0.000107839835,,,,
2022-02-26 14:00:10.268318,5,0.000106982385,,,,
2022-02-26 14:00:10.268818,5,0.00010793993,,,,
2022-02-26 14:00:10.269318,5,0.00011193452,,,,
2022-02-26 14:00:10.269818,5,0.000116738476,,,,
2022-02-26 14:00:10.270318,5,0.00011854962,,,,
2022-02-26 14:00:10.270818,5,0.00011549599,,,,
2022-02-26 14:00:10.271318,5,0.000110184825,,,,
2022-02-26 14:00:10.271818,5,0.00010645663,,,,
2022-02-26 14:00:10.272318,5,0.00010489136,,,,
2022-02-26 14:00:10.272818,5,0.00010320584,,,,
2022-02-26 14:00:10.273318,5,9.846662e-05,,,,
2022-02-26 14:00:10.273818,5,8.964465e-05,,,,
2022-02-26 14:00:10.274318,5,7.843249e-05,,,,
2022-02-26 14:00:10.274818,5,6.6973946e-05,,,,
2022-02-26 14:00:10.275318,5,5.7361587e-05,,,,
2022-02-26 14:00:10.275818,5,5.17215e-05,,,,
2022-02-26 14:00:10.276318,5,5.027251e-05,,,,
2022-02-26 14:00:10.276818,5,5.262944e-05,,,,
2022-02-26 14:00:10.277318,5,5.637221e-05,,,,
2022-02-26 14:00:10.277818,5,5.3623127e-05,,,,
2022-02-26 14:00:10.278318,5,4.1995354e-05,,,,
2022-02-26 14:00:10.278818,5,3.0963532e-05,,,,
2022-02-26 14:00:10.279318,5,2.773536e-05,,,,
2022-02-26 14:00:10.279818,5,3.0576924e-05,,,,
2022-02-26 14:00:10.280318,5,3.5941644e-05,,,,
2022-02-26 14:00:10.280818,5,4.317269e-05,,,,
2022-02-26 14:00:10.281318,5,5.4513996e-05,,,,
2022-02-26 14:00:10.281818,5,7.010939e-05,,,,
2022-02-26 14:00:10.282318,5,8.480214e-05,,,,
2022-02-26 14:00:10.282818,5,9.349084e-05,,,,
2022-02-26 14:00:10.283318,5,9.495759e-05,,,,
2022-02-26 14:00:10.283818,5,9.058774e-05,,,,
2022-02-26 14:00:10.284318,5,8.408368e-05,,,,
2022-02-26 14:00:10.284818,5,8.023677e-05,,,,
2022-02-26 14:00:10.285318,5,8.044649e-05,,,,
2022-02-26 14:00:10.285818,5,8.143203e-05,,,,
2022-02-26 14:00:10.286318,5,8.0915495e-05,,,,
2022-02-26 14:00:10.286818,5,8.0477745e-05,,,,
2022-02-26 14:00:10.287318,5,8.137412e-05,,,,
2022-02-26 14:00:10.287818,5,8.26264e-05,,,,
2022-02-26 14:00:10.288318,5,8.294876e-05,,,,
2022-02-26 14:00:10.288818,5,8.20669e-05,,,,
2022-02-26 14:00:10.289318,5,8.1292616e-05,,,,
2022-02-26 14:00:10.289818,5,8.16959e-05,,,,
